Sampling Rate (Hz): 500
Gain (digit/millivolt): 2048 
I,II,III,aVR,aVL,aVF,V1,V2,V3,V4,V5,V6
50,-100,-150,25,100,-125,10,-250,-170,-130,-80,-220
40,-100,-140,30,90,-120,0,-270,-190,-140,-90,-250
30,-100,-130,35,80,-115,10,-290,-190,-150,-100,-270
20,-110,-130,45,75,-120,10,-280,-190,-140,-110,-270
20,-90,-110,35,65,-100,40,-280,-190,-150,-100,-270
0,-100,-100,50,50,-100,60,-270,-180,-140,-110,-270
-20,-120,-100,70,40,-110,70,-260,-170,-140,-110,-280
-20,-120,-100,70,40,-110,70,-270,-180,-140,-110,-270
-30,-120,-90,75,30,-105,70,-300,-220,-180,-140,-300
-50,-140,-90,95,20,-115,60,-320,-230,-190,-150,-310
-40,-150,-110,95,35,-130,50,-350,-260,-220,-180,-340
-50,-170,-120,110,35,-145,30,-370,-270,-230,-200,-360
-60,-180,-120,120,30,-150,50,-370,-260,-230,-190,-350
-60,-170,-110,115,25,-140,50,-370,-270,-220,-200,-350
-50,-160,-110,105,30,-135,50,-380,-270,-230,-200,-350
-40,-160,-120,100,40,-140,60,-360,-270,-220,-200,-360
-40,-160,-120,100,40,-140,50,-380,-280,-230,-200,-360
-40,-150,-110,95,35,-130,50,-380,-280,-230,-210,-380
-30,-150,-120,90,45,-135,50,-380,-290,-240,-200,-380
-30,-160,-130,95,50,-145,40,-390,-300,-240,-210,-390
-30,-160,-130,95,50,-145,50,-400,-290,-230,-200,-380
-50,-180,-130,115,40,-155,60,-410,-280,-230,-190,-380
-50,-170,-120,110,35,-145,40,-410,-290,-230,-210,-390
-30,-160,-130,95,50,-145,50,-410,-280,-220,-200,-400
-60,-180,-120,120,30,-150,50,-410,-280,-230,-190,-380
-60,-170,-110,115,25,-140,50,-390,-270,-230,-190,-370
-50,-160,-110,105,30,-135,50,-390,-280,-230,-190,-380
-40,-170,-130,105,45,-150,60,-390,-270,-230,-190,-380
-30,-150,-120,90,45,-135,60,-370,-270,-230,-190,-370
-40,-170,-130,105,45,-150,60,-380,-270,-230,-190,-380
-30,-170,-140,100,55,-155,60,-370,-270,-240,-200,-380
-20,-190,-170,105,75,-180,70,-340,-260,-220,-170,-380
-20,-230,-210,125,95,-220,60,-300,-240,-200,-160,-390
10,-240,-250,115,130,-245,60,-240,-160,-130,-110,-370
60,-250,-310,95,185,-280,50,-120,-50,-20,0,-310
110,-270,-380,80,245,-325,20,0,90,100,100,-260
160,-260,-420,50,290,-340,-10,60,200,200,170,-220
190,-190,-380,-0,285,-285,-60,60,300,280,230,-160
250,-60,-310,-95,280,-185,-110,140,500,430,370,-70
290,100,-190,-195,240,-45,-100,270,740,640,530,60
300,270,-30,-285,165,120,-60,260,879,770,620,130
300,450,150,-375,75,300,-40,30,899,840,690,230
320,620,300,-470,10,460,-110,-360,840,899,760,340
340,830,490,-585,-75,660,-220,-730,770,959,879,490
390,1099,710,-745,-160,904,-320,-1059,730,1029,979,660
340,1359,1019,-850,-340,1189,-450,-1459,540,969,959,790
290,1619,1329,-954,-520,1474,-620,-1849,260,840,860,850
230,1849,1619,-1039,-695,1734,-710,-2129,70,710,780,899
130,2129,1999,-1129,-934,2064,-850,-2509,-200,520,610,899
80,2389,2309,-1234,-1114,2349,-1119,-2928,-560,280,420,909
60,2409,2349,-1234,-1144,2379,-1449,-3258,-969,20,260,889
100,2279,2179,-1189,-1039,2229,-1739,-3438,-1239,-170,140,879
150,2059,1909,-1104,-879,1984,-1859,-3388,-1329,-270,70,840
130,1679,1549,-904,-710,1614,-1759,-3168,-1379,-380,-20,690
90,1209,1119,-650,-515,1164,-1579,-2908,-1419,-510,-160,470
10,810,800,-410,-395,805,-1419,-2758,-1549,-730,-380,220
-50,430,480,-190,-265,455,-1319,-2628,-1669,-959,-590,-20
-120,60,180,30,-150,120,-1099,-2429,-1809,-1199,-800,-310
-200,-180,20,190,-110,-80,-810,-2169,-1809,-1339,-939,-540
-240,-260,-20,250,-110,-140,-600,-1909,-1619,-1249,-939,-650
-220,-280,-60,250,-80,-170,-480,-1639,-1359,-1059,-810,-620
-200,-280,-80,240,-60,-180,-410,-1429,-1139,-899,-680,-580
-170,-220,-50,195,-60,-135,-340,-1219,-949,-750,-570,-540
-120,-170,-50,145,-35,-110,-270,-1029,-790,-620,-470,-510
-110,-210,-100,160,-5,-155,-170,-840,-630,-510,-380,-460
-100,-220,-120,160,10,-170,-80,-690,-480,-410,-300,-430
-70,-180,-110,125,20,-145,-20,-570,-380,-340,-260,-400
-40,-120,-80,80,20,-100,-10,-470,-280,-270,-200,-380
0,-70,-70,35,35,-70,10,-390,-190,-200,-140,-340
0,-70,-70,35,35,-70,30,-320,-140,-160,-100,-330
10,-70,-80,30,45,-75,30,-290,-130,-160,-100,-340
0,-80,-80,40,40,-80,50,-260,-100,-120,-80,-330
-10,-90,-80,50,35,-85,60,-240,-100,-120,-80,-320
0,-70,-70,35,35,-70,70,-220,-100,-120,-80,-310
0,-70,-70,35,35,-70,80,-210,-90,-130,-80,-300
-10,-80,-70,45,30,-75,80,-210,-80,-150,-90,-300
0,-80,-80,40,40,-80,80,-190,-60,-130,-90,-310
10,-80,-90,35,50,-85,90,-190,-40,-120,-80,-320
0,-110,-110,55,55,-110,90,-180,-30,-110,-80,-320
-10,-120,-110,65,50,-115,90,-170,-10,-100,-60,-320
-10,-140,-130,75,60,-135,80,-160,-20,-90,-60,-330
-10,-120,-110,65,50,-115,90,-150,0,-70,-30,-310
-10,-120,-110,65,50,-115,90,-130,10,-60,-20,-290
-20,-110,-90,65,35,-100,100,-120,20,-50,-10,-270
0,-100,-100,50,50,-100,100,-120,10,-60,-20,-280
-10,-110,-100,60,45,-105,120,-110,30,-60,-20,-270
10,-90,-100,40,55,-95,120,-110,40,-60,-20,-260
10,-90,-100,40,55,-95,130,-110,50,-50,-10,-260
10,-100,-110,45,60,-105,110,-120,50,-50,-20,-270
10,-90,-100,40,55,-95,110,-120,70,-30,0,-260
0,-90,-90,45,45,-90,110,-110,60,-20,0,-260
-10,-100,-90,55,40,-95,110,-100,70,-10,30,-240
10,-90,-100,40,55,-95,110,-80,80,0,30,-230
-10,-100,-90,55,40,-95,110,-70,70,-10,20,-240
0,-100,-100,50,50,-100,110,-70,60,-20,0,-260
0,-90,-90,45,45,-90,130,-60,90,-10,10,-260
30,-70,-100,20,65,-85,110,-60,90,-10,10,-240
40,-60,-100,10,70,-80,120,-70,100,0,20,-240
40,-70,-110,15,75,-90,100,-70,120,10,20,-240
30,-90,-120,30,75,-105,110,-70,130,20,30,-240
40,-70,-110,15,75,-90,110,-70,130,30,40,-240
30,-90,-120,30,75,-105,110,-60,140,40,60,-220
40,-80,-120,20,80,-100,120,-30,150,50,80,-200
20,-60,-80,20,50,-70,130,-20,150,60,80,-200
20,-70,-90,25,55,-80,130,-20,140,40,60,-210
20,-60,-80,20,50,-70,140,-10,170,50,70,-200
30,-70,-100,20,65,-85,130,-10,170,50,60,-210
40,-50,-90,5,65,-70,140,-10,180,60,80,-210
60,-50,-110,-5,85,-80,120,-10,190,70,80,-200
50,-60,-110,5,80,-85,130,-10,210,80,80,-210
60,-60,-120,-0,90,-90,120,0,210,100,90,-200
70,-50,-120,-10,95,-85,130,10,230,120,120,-180
50,-50,-100,-0,75,-75,110,20,220,110,110,-180
40,-40,-80,-0,60,-60,130,30,220,110,120,-170
50,-30,-80,-10,65,-55,120,40,230,120,120,-170
40,-30,-70,-5,55,-50,130,40,240,110,120,-170
50,-20,-70,-15,60,-45,130,50,250,120,100,-170
40,-10,-50,-15,45,-30,130,50,260,140,120,-170
60,-10,-70,-25,65,-40,130,60,290,160,130,-150
60,-10,-70,-25,65,-40,130,60,300,170,150,-150
70,-10,-80,-30,75,-45,120,60,290,180,150,-170
70,-10,-80,-30,75,-45,130,80,310,210,170,-150
60,-20,-80,-20,70,-50,120,100,330,210,170,-130
60,-20,-80,-20,70,-50,130,120,330,210,180,-120
70,-10,-80,-30,75,-45,140,130,340,220,190,-110
80,0,-80,-40,80,-40,130,130,350,210,190,-120
90,0,-90,-45,90,-45,130,150,370,230,200,-110
90,20,-70,-55,80,-25,140,150,390,250,220,-100
80,-20,-100,-30,90,-60,120,160,410,260,230,-90
100,0,-100,-50,100,-50,120,160,430,290,250,-70
110,20,-90,-65,100,-35,120,190,430,310,270,-70
110,20,-90,-65,100,-35,130,220,450,330,300,-50
120,50,-70,-85,95,-10,130,230,470,350,310,-40
120,50,-70,-85,95,-10,120,250,490,360,320,-20
120,60,-60,-90,90,0,130,270,500,370,330,-10
110,40,-70,-75,90,-15,130,280,530,380,340,0
130,50,-80,-90,105,-15,120,300,550,400,340,10
140,70,-70,-105,105,0,130,300,570,420,370,10
140,60,-80,-100,110,-10,130,310,600,440,370,20
150,50,-100,-100,125,-25,130,340,650,490,400,60
170,70,-100,-120,135,-15,120,350,660,510,420,60
160,70,-90,-115,125,-10,140,410,690,550,470,100
180,100,-80,-140,130,10,130,420,710,570,480,110
180,100,-80,-140,130,10,140,440,750,590,510,130
190,120,-70,-155,130,25,150,470,760,610,520,160
200,140,-60,-170,130,40,160,510,810,630,550,190
210,140,-70,-175,140,35,150,530,840,660,580,210
210,150,-60,-180,135,45,140,530,860,680,590,200
240,170,-70,-205,155,50,140,550,899,720,610,240
230,170,-60,-200,145,55,130,570,949,750,630,260
260,200,-60,-230,160,70,120,600,969,780,660,270
250,200,-50,-225,150,75,140,640,1019,820,720,310
250,220,-30,-235,140,95,120,650,1019,840,730,310
280,220,-60,-250,170,80,120,680,1049,879,750,340
280,220,-60,-250,170,80,120,710,1069,889,770,360
290,260,-30,-275,160,115,120,730,1109,909,790,380
310,280,-30,-295,170,125,120,760,1139,939,810,410
310,290,-20,-300,165,135,120,760,1159,949,840,410
330,290,-40,-310,185,125,100,750,1169,979,840,420
310,280,-30,-295,170,125,100,760,1209,999,860,440
310,300,-10,-305,160,145,90,770,1209,1019,869,450
310,310,0,-310,155,155,100,820,1219,1039,899,470
320,330,10,-325,155,170,90,810,1219,1039,899,480
320,360,40,-340,140,200,70,820,1229,1049,909,490
320,380,60,-350,130,220,90,840,1239,1069,919,510
320,380,60,-350,130,220,90,840,1249,1059,919,510
340,410,70,-375,135,240,80,830,1249,1049,919,510
350,410,60,-380,145,235,70,840,1249,1049,919,510
340,420,80,-380,130,250,70,830,1259,1059,909,510
350,420,70,-385,140,245,70,810,1259,1069,929,520
330,410,80,-370,125,245,70,810,1229,1069,929,510
340,420,80,-380,130,250,70,800,1229,1049,929,500
340,430,90,-385,125,260,80,790,1209,1039,909,520
320,420,100,-370,110,260,80,780,1169,1019,899,510
320,420,100,-370,110,260,80,760,1139,989,879,490
300,440,140,-370,80,290,90,740,1129,949,860,470
300,440,140,-370,80,290,90,690,1089,909,820,450
290,430,140,-360,75,285,90,670,1049,879,800,440
280,420,140,-350,70,280,80,610,999,840,750,390
280,420,140,-350,70,280,80,560,959,800,710,370
270,410,140,-340,65,275,90,530,899,750,680,340
230,380,150,-305,40,265,90,490,840,700,640,300
210,390,180,-300,15,285,90,460,790,660,610,280
190,360,170,-275,10,265,90,410,710,600,550,230
170,340,170,-255,0,255,90,370,650,540,500,190
170,320,150,-245,10,235,110,330,580,480,440,160
150,300,150,-225,0,225,100,270,530,420,390,120
150,290,140,-220,5,215,110,220,500,390,350,110
130,270,140,-200,-5,205,110,180,450,360,320,80
110,260,150,-185,-20,205,100,140,400,300,280,40
110,240,130,-175,-10,185,110,100,360,270,260,20
90,220,130,-155,-20,175,110,60,310,220,220,-10
80,190,110,-135,-15,150,90,30,260,180,180,-30
50,180,130,-115,-40,155,120,10,230,170,170,-50
30,150,120,-90,-45,135,110,-30,170,120,130,-70
30,140,110,-85,-40,125,130,-50,140,80,110,-100
40,140,100,-90,-30,120,110,-100,100,40,60,-130
20,100,80,-60,-30,90,100,-120,80,20,30,-150
20,90,70,-55,-25,80,110,-140,60,10,30,-150
10,80,70,-45,-30,75,100,-170,30,-10,10,-180
20,50,30,-35,-5,40,90,-190,10,-30,10,-180
20,30,10,-25,5,20,100,-190,0,-20,0,-180
10,10,0,-10,5,5,90,-210,-20,-50,-20,-190
10,10,0,-10,5,5,100,-220,-40,-60,-20,-190
0,10,10,-5,-5,10,90,-240,-70,-90,-50,-190
-20,-10,10,15,-15,0,80,-250,-70,-110,-70,-200
-10,-10,0,10,-5,-5,90,-270,-90,-120,-90,-210
-30,-30,0,30,-15,-15,70,-290,-100,-130,-100,-220
-30,-40,-10,35,-10,-25,70,-290,-100,-130,-100,-220
-20,-50,-30,35,5,-40,80,-310,-100,-130,-90,-220
-20,-60,-40,40,10,-50,70,-320,-120,-130,-90,-220
-10,-60,-50,35,20,-55,80,-310,-110,-120,-90,-210
-20,-60,-40,40,10,-50,60,-320,-120,-140,-100,-220
-20,-60,-40,40,10,-50,60,-330,-140,-150,-100,-220
-20,-50,-30,35,5,-40,80,-320,-140,-140,-100,-210
-30,-70,-40,50,5,-55,80,-320,-130,-160,-110,-220
-20,-60,-40,40,10,-50,60,-340,-140,-160,-120,-220
-30,-70,-40,50,5,-55,60,-330,-140,-160,-110,-220
-40,-100,-60,70,10,-80,50,-350,-140,-170,-130,-240
-20,-80,-60,50,20,-70,50,-360,-150,-180,-130,-230
-30,-80,-50,55,10,-65,50,-360,-150,-180,-120,-220
-30,-90,-60,60,15,-75,50,-350,-160,-170,-120,-240
-20,-80,-60,50,20,-70,60,-350,-150,-160,-120,-230
-20,-90,-70,55,25,-80,50,-350,-170,-170,-120,-230
-20,-80,-60,50,20,-70,50,-360,-180,-180,-120,-230
-20,-80,-60,50,20,-70,60,-360,-170,-190,-120,-230
-30,-80,-50,55,10,-65,50,-380,-180,-200,-140,-240
-30,-80,-50,55,10,-65,50,-370,-170,-190,-150,-240
-30,-100,-70,65,20,-85,60,-380,-170,-190,-150,-230
-20,-110,-90,65,35,-100,50,-400,-180,-190,-160,-250
-20,-100,-80,60,30,-90,50,-400,-180,-180,-150,-240
-40,-110,-70,75,15,-90,50,-380,-180,-170,-140,-230
-40,-100,-60,70,10,-80,50,-390,-180,-180,-150,-240
-50,-100,-50,75,0,-75,50,-380,-180,-180,-150,-240
-50,-110,-60,80,5,-85,50,-370,-190,-180,-140,-230
-50,-100,-50,75,0,-75,60,-360,-170,-180,-140,-230
-40,-100,-60,70,10,-80,60,-370,-180,-190,-150,-240
-50,-120,-70,85,10,-95,60,-370,-170,-180,-140,-220
-40,-100,-60,70,10,-80,60,-390,-170,-180,-150,-230
-50,-120,-70,85,10,-95,50,-400,-170,-180,-150,-220
-40,-110,-70,75,15,-90,40,-400,-170,-180,-140,-220
-30,-120,-90,75,30,-105,50,-390,-170,-170,-140,-220
-40,-110,-70,75,15,-90,60,-390,-180,-170,-140,-220
-40,-100,-60,70,10,-80,60,-370,-170,-170,-140,-230
-50,-100,-50,75,0,-75,60,-350,-160,-160,-130,-220
-40,-80,-40,60,0,-60,70,-350,-150,-160,-130,-210
-40,-60,-20,50,-10,-40,70,-360,-150,-170,-140,-220
-50,-90,-40,70,-5,-65,60,-370,-150,-180,-140,-230
-40,-100,-60,70,10,-80,50,-380,-150,-190,-150,-230
-20,-110,-90,65,35,-100,60,-360,-130,-170,-140,-220
-40,-100,-60,70,10,-80,60,-360,-140,-160,-140,-220
-30,-90,-60,60,15,-75,60,-350,-130,-150,-130,-200
-40,-90,-50,65,5,-70,60,-360,-140,-140,-130,-200
-40,-90,-50,65,5,-70,60,-340,-140,-140,-130,-190
-40,-80,-40,60,0,-60,60,-340,-130,-140,-120,-190
-40,-90,-50,65,5,-70,60,-340,-130,-140,-130,-200
-20,-60,-40,40,10,-50,60,-340,-130,-150,-130,-200
-30,-80,-50,55,10,-65,60,-330,-120,-130,-110,-190
-30,-80,-50,55,10,-65,60,-330,-110,-140,-110,-180
-10,-60,-50,35,20,-55,60,-320,-110,-120,-110,-180
-20,-70,-50,45,15,-60,70,-320,-100,-120,-100,-170
-20,-80,-60,50,20,-70,60,-320,-100,-110,-100,-180
-10,-70,-60,40,25,-65,60,-320,-100,-120,-110,-190
-20,-90,-70,55,25,-80,40,-320,-120,-130,-110,-190
-30,-80,-50,55,10,-65,60,-300,-100,-120,-100,-180
-20,-80,-60,50,20,-70,50,-310,-100,-120,-100,-170
-40,-100,-60,70,10,-80,60,-310,-100,-130,-100,-180
-30,-100,-70,65,20,-85,70,-300,-80,-110,-80,-160
-30,-100,-70,65,20,-85,60,-310,-70,-110,-90,-150
-20,-100,-80,60,30,-90,60,-320,-70,-110,-90,-170
-20,-80,-60,50,20,-70,60,-300,-70,-100,-80,-150
-30,-90,-60,60,15,-75,60,-290,-60,-100,-80,-140
-30,-80,-50,55,10,-65,70,-300,-70,-110,-90,-150
-30,-90,-60,60,15,-75,80,-280,-70,-90,-70,-140
-30,-80,-50,55,10,-65,50,-300,-70,-110,-90,-150
-30,-80,-50,55,10,-65,60,-290,-80,-110,-90,-160
-20,-70,-50,45,15,-60,60,-300,-70,-110,-90,-150
-20,-70,-50,45,15,-60,60,-290,-60,-100,-90,-150
-20,-80,-60,50,20,-70,50,-300,-60,-100,-90,-140
-20,-80,-60,50,20,-70,50,-290,-70,-100,-90,-150
-10,-60,-50,35,20,-55,70,-290,-70,-100,-80,-140
-10,-80,-70,45,30,-75,70,-280,-60,-90,-70,-120
-20,-80,-60,50,20,-70,70,-290,-70,-100,-70,-130
-10,-60,-50,35,20,-55,60,-280,-70,-90,-80,-140
-20,-70,-50,45,15,-60,60,-290,-60,-90,-70,-110
-20,-90,-70,55,25,-80,60,-280,-70,-100,-80,-110
-20,-80,-60,50,20,-70,60,-290,-70,-100,-80,-120
-40,-90,-50,65,5,-70,50,-300,-70,-110,-70,-130
-30,-90,-60,60,15,-75,60,-290,-70,-110,-70,-130
-20,-90,-70,55,25,-80,60,-290,-80,-100,-70,-120
-10,-80,-70,45,30,-75,50,-300,-80,-120,-70,-120
-10,-80,-70,45,30,-75,60,-290,-70,-120,-70,-120
-30,-90,-60,60,15,-75,50,-300,-80,-120,-70,-130
-20,-80,-60,50,20,-70,60,-290,-80,-110,-80,-120
-20,-70,-50,45,15,-60,60,-300,-80,-120,-70,-120
-10,-80,-70,45,30,-75,50,-300,-90,-130,-90,-130
-20,-80,-60,50,20,-70,70,-300,-90,-120,-100,-130
-40,-110,-70,75,15,-90,60,-300,-90,-120,-100,-130
-40,-110,-70,75,15,-90,60,-300,-90,-130,-100,-130
-20,-100,-80,60,30,-90,60,-300,-100,-130,-100,-140
-40,-110,-70,75,15,-90,50,-310,-100,-130,-100,-130
-40,-110,-70,75,15,-90,50,-310,-110,-130,-100,-130
-30,-110,-80,70,25,-95,50,-310,-100,-120,-90,-120
-40,-110,-70,75,15,-90,50,-310,-110,-130,-100,-130
-30,-90,-60,60,15,-75,50,-320,-120,-130,-100,-120
-30,-110,-80,70,25,-95,60,-310,-110,-130,-100,-130
-40,-100,-60,70,10,-80,60,-310,-110,-130,-100,-140
-30,-90,-60,60,15,-75,50,-320,-120,-140,-110,-160
-60,-100,-40,80,-10,-70,70,-320,-100,-140,-100,-140
-40,-100,-60,70,10,-80,60,-320,-130,-140,-110,-160
-30,-100,-70,65,20,-85,60,-320,-130,-140,-110,-150
-40,-130,-90,85,25,-110,50,-330,-140,-140,-110,-150
-40,-120,-80,80,20,-100,50,-320,-130,-140,-100,-140
-40,-120,-80,80,20,-100,50,-320,-140,-140,-100,-140
-40,-100,-60,70,10,-80,50,-320,-150,-140,-110,-140
-20,-100,-80,60,30,-90,50,-320,-130,-140,-120,-150
-40,-120,-80,80,20,-100,70,-310,-130,-130,-110,-130
-30,-120,-90,75,30,-105,60,-320,-140,-140,-120,-130
-10,-100,-90,55,40,-95,60,-340,-130,-150,-120,-140
-30,-120,-90,75,30,-105,60,-340,-140,-140,-120,-140
-20,-110,-90,65,35,-100,70,-330,-130,-130,-110,-130
-30,-130,-100,80,35,-115,60,-330,-140,-140,-110,-140
-50,-130,-80,90,15,-105,50,-330,-140,-150,-120,-140
-30,-100,-70,65,20,-85,60,-320,-140,-130,-110,-130
-40,-90,-50,65,5,-70,50,-320,-140,-140,-110,-140
-20,-100,-80,60,30,-90,50,-330,-140,-150,-120,-150
-30,-110,-80,70,25,-95,60,-330,-140,-160,-120,-160
-30,-110,-80,70,25,-95,50,-340,-150,-160,-140,-160
-20,-90,-70,55,25,-80,50,-340,-140,-160,-120,-140
-40,-130,-90,85,25,-110,60,-320,-130,-150,-110,-130
-50,-120,-70,85,10,-95,50,-320,-140,-150,-120,-140
-50,-110,-60,80,5,-85,60,-320,-140,-150,-120,-140
-50,-120,-70,85,10,-95,50,-330,-150,-160,-120,-140
-50,-130,-80,90,15,-105,70,-340,-150,-160,-130,-140
-70,-120,-50,95,-10,-85,70,-330,-140,-150,-110,-140
-70,-140,-70,105,0,-105,60,-340,-150,-160,-120,-150
-60,-140,-80,100,10,-110,80,-330,-120,-140,-120,-130
-60,-130,-70,95,5,-100,80,-330,-130,-160,-120,-140
-40,-120,-80,80,20,-100,70,-320,-120,-140,-130,-120
-40,-120,-80,80,20,-100,70,-320,-120,-140,-120,-130
-60,-140,-80,100,10,-110,70,-320,-120,-140,-110,-140
-50,-150,-100,100,25,-125,70,-330,-140,-150,-110,-140
-50,-160,-110,105,30,-135,70,-330,-140,-150,-130,-140
-50,-140,-90,95,20,-115,60,-330,-150,-150,-120,-150
-50,-130,-80,90,15,-105,70,-330,-140,-150,-130,-150
-60,-150,-90,105,15,-120,60,-330,-150,-160,-140,-150
-60,-150,-90,105,15,-120,70,-330,-150,-150,-140,-150
-50,-130,-80,90,15,-105,60,-320,-150,-160,-140,-140
-50,-140,-90,95,20,-115,60,-320,-140,-150,-140,-140
-40,-120,-80,80,20,-100,60,-330,-150,-150,-130,-140
-50,-130,-80,90,15,-105,60,-330,-150,-150,-130,-150
-50,-140,-90,95,20,-115,50,-330,-150,-160,-130,-140
-40,-120,-80,80,20,-100,60,-330,-150,-160,-130,-130
-40,-120,-80,80,20,-100,70,-330,-160,-150,-130,-130
-60,-130,-70,95,5,-100,60,-330,-150,-150,-130,-150
-50,-130,-80,90,15,-105,60,-320,-150,-150,-130,-150
-60,-150,-90,105,15,-120,60,-320,-150,-150,-140,-150
-60,-140,-80,100,10,-110,60,-310,-140,-140,-140,-150
-60,-150,-90,105,15,-120,70,-320,-140,-150,-140,-140
-50,-130,-80,90,15,-105,70,-330,-150,-150,-150,-150
-50,-110,-60,80,5,-85,60,-320,-140,-150,-140,-160
-60,-130,-70,95,5,-100,70,-320,-150,-150,-140,-150
-70,-120,-50,95,-10,-85,70,-320,-150,-160,-140,-140
-50,-110,-60,80,5,-85,70,-310,-160,-150,-140,-150
-60,-130,-70,95,5,-100,70,-310,-150,-160,-140,-140
-50,-130,-80,90,15,-105,70,-310,-140,-160,-140,-140
-70,-130,-60,100,-5,-95,70,-310,-140,-150,-140,-140
-70,-130,-60,100,-5,-95,70,-310,-140,-150,-130,-140
-60,-130,-70,95,5,-100,60,-330,-140,-160,-140,-150
-70,-150,-80,110,5,-115,60,-320,-140,-150,-140,-160
-70,-130,-60,100,-5,-95,70,-310,-140,-140,-130,-160
-50,-140,-90,95,20,-115,70,-300,-140,-140,-120,-160
-50,-130,-80,90,15,-105,70,-300,-140,-140,-130,-150
-40,-120,-80,80,20,-100,60,-290,-150,-140,-130,-160
-50,-130,-80,90,15,-105,70,-300,-140,-140,-120,-140
-50,-140,-90,95,20,-115,70,-310,-150,-150,-130,-150
-60,-140,-80,100,10,-110,70,-300,-150,-150,-130,-140
-50,-150,-100,100,25,-125,60,-310,-150,-150,-140,-140
-60,-140,-80,100,10,-110,80,-310,-140,-150,-140,-140
-60,-140,-80,100,10,-110,70,-300,-150,-150,-150,-160
-90,-150,-60,120,-15,-105,70,-300,-140,-150,-150,-150
-70,-150,-80,110,5,-115,80,-300,-150,-140,-140,-150
-80,-150,-70,115,-5,-110,80,-300,-150,-140,-140,-150
-80,-140,-60,110,-10,-100,80,-280,-150,-140,-140,-150
-60,-140,-80,100,10,-110,80,-290,-150,-140,-150,-140
-70,-150,-80,110,5,-115,70,-290,-150,-140,-140,-140
-60,-130,-70,95,5,-100,70,-290,-140,-140,-150,-150
-50,-110,-60,80,5,-85,70,-280,-130,-130,-150,-150
-60,-130,-70,95,5,-100,60,-290,-130,-140,-150,-150
-70,-150,-80,110,5,-115,80,-280,-130,-120,-140,-140
-70,-150,-80,110,5,-115,60,-290,-140,-140,-140,-140
-90,-150,-60,120,-15,-105,60,-290,-140,-140,-140,-140
-80,-140,-60,110,-10,-100,70,-280,-130,-120,-130,-130
-100,-150,-50,125,-25,-100,70,-260,-130,-130,-120,-130
-70,-120,-50,95,-10,-85,60,-270,-130,-130,-130,-130
-70,-130,-60,100,-5,-95,60,-270,-140,-130,-140,-140
-80,-140,-60,110,-10,-100,70,-270,-130,-130,-150,-140
-70,-120,-50,95,-10,-85,70,-260,-120,-130,-130,-130
-60,-130,-70,95,5,-100,60,-270,-120,-140,-130,-130
-70,-140,-70,105,0,-105,60,-270,-140,-140,-130,-150
-70,-140,-70,105,0,-105,50,-290,-140,-140,-160,-150
-90,-140,-50,115,-20,-95,40,-290,-140,-140,-150,-150
-80,-120,-40,100,-20,-80,50,-290,-140,-130,-150,-150
-80,-110,-30,95,-25,-70,50,-270,-140,-130,-150,-160
-90,-120,-30,105,-30,-75,50,-270,-130,-140,-160,-140
-80,-100,-20,90,-30,-60,60,-260,-130,-130,-150,-140
-70,-100,-30,85,-20,-65,60,-260,-120,-120,-140,-140
-60,-70,-10,65,-25,-40,60,-250,-110,-120,-130,-130
-50,-60,-10,55,-20,-35,50,-260,-120,-120,-140,-140
-60,-90,-30,75,-15,-60,50,-270,-130,-120,-140,-130
-50,-80,-30,65,-10,-55,70,-240,-110,-110,-130,-120
-70,-80,-10,75,-30,-45,50,-240,-120,-100,-130,-130
-50,-60,-10,55,-20,-35,60,-230,-110,-100,-120,-130
-40,-40,0,40,-20,-20,70,-220,-110,-100,-120,-120
-70,-70,0,70,-35,-35,80,-220,-100,-100,-110,-120
-70,-80,-10,75,-30,-45,80,-210,-90,-90,-110,-130
-40,-60,-20,50,-10,-40,90,-200,-70,-70,-100,-120
-40,-70,-30,55,-5,-50,80,-190,-70,-70,-100,-120
-30,-100,-70,65,20,-85,80,-150,-50,-60,-90,-100
-30,-140,-110,85,40,-125,90,-140,-40,-50,-80,-90
-30,-140,-110,85,40,-125,80,-130,-30,-40,-70,-90
-10,-130,-120,70,55,-125,70,-110,-20,-20,-70,-80
-10,-120,-110,65,50,-115,50,-120,-30,-20,-70,-90
-10,-140,-130,75,60,-135,40,-120,-20,-20,-70,-80
-10,-150,-140,80,65,-145,0,-140,-30,-40,-80,-100
-30,-170,-140,100,55,-155,-10,-170,-60,-60,-90,-110
-40,-170,-130,105,45,-150,0,-170,-70,-60,-100,-110
-30,-160,-130,95,50,-145,-10,-180,-70,-70,-110,-110
-20,-150,-130,85,55,-140,-10,-190,-70,-70,-100,-120
-20,-140,-120,80,50,-130,0,-190,-80,-60,-100,-110
-20,-150,-130,85,55,-140,-10,-190,-60,-50,-90,-120
10,-140,-150,65,80,-145,-20,-190,-70,-60,-100,-110
10,-140,-150,65,80,-145,-20,-190,-70,-50,-90,-90
-10,-150,-140,80,65,-145,-20,-180,-70,-60,-90,-100
0,-160,-160,80,80,-160,-10,-170,-70,-60,-90,-90
-10,-160,-150,85,70,-155,0,-170,-60,-50,-90,-90
0,-130,-130,65,65,-130,-10,-160,-50,-40,-80,-60
30,-100,-130,35,80,-115,-10,-150,-40,-30,-70,-60
0,-100,-100,50,50,-100,-20,-150,-30,-20,-60,-60
0,-110,-110,55,55,-110,0,-150,-40,-20,-50,-60
0,-110,-110,55,55,-110,0,-150,-40,-30,-60,-60
-20,-110,-90,65,35,-100,-10,-170,-60,-50,-90,-80
-10,-80,-70,45,30,-75,10,-160,-60,-50,-80,-90
-30,-70,-40,50,5,-55,20,-160,-60,-40,-90,-80
-50,-90,-40,70,-5,-65,40,-140,-40,-30,-90,-90
-60,-90,-30,75,-15,-60,40,-150,-50,-50,-100,-100
-90,-120,-30,105,-30,-75,40,-160,-60,-60,-110,-110
-100,-130,-30,115,-35,-80,40,-170,-80,-70,-130,-110
-100,-150,-50,125,-25,-100,30,-190,-100,-100,-140,-140
-100,-170,-70,135,-15,-120,10,-210,-130,-120,-160,-150
-90,-170,-80,130,-5,-125,10,-210,-130,-120,-160,-160
-100,-180,-80,140,-10,-130,20,-210,-130,-120,-160,-150
-110,-180,-70,145,-20,-125,30,-210,-130,-120,-150,-140
-90,-160,-70,125,-10,-115,20,-220,-130,-120,-160,-140
-90,-160,-70,125,-10,-115,20,-220,-140,-110,-170,-140
-90,-150,-60,120,-15,-105,20,-220,-130,-110,-160,-140
-90,-170,-80,130,-5,-125,40,-210,-130,-120,-170,-150
-110,-180,-70,145,-20,-125,40,-200,-120,-120,-160,-140
-110,-170,-60,140,-25,-115,40,-200,-120,-110,-160,-130
-110,-180,-70,145,-20,-125,40,-210,-120,-110,-170,-140
-110,-180,-70,145,-20,-125,40,-210,-130,-120,-170,-140
-90,-170,-80,130,-5,-125,20,-220,-140,-130,-170,-150
-110,-170,-60,140,-25,-115,30,-210,-130,-120,-170,-150
-90,-170,-80,130,-5,-125,20,-200,-120,-130,-180,-150
-110,-170,-60,140,-25,-115,30,-190,-130,-120,-180,-140
-100,-160,-60,130,-20,-110,30,-190,-120,-130,-200,-140
-110,-150,-40,130,-35,-95,40,-180,-110,-120,-190,-130
-120,-150,-30,135,-45,-90,30,-180,-120,-120,-190,-130
-140,-150,-10,145,-65,-80,50,-170,-100,-110,-180,-130
-130,-180,-50,155,-40,-115,60,-160,-90,-110,-170,-130
-120,-210,-90,165,-15,-150,60,-140,-90,-100,-170,-140
-120,-220,-100,170,-10,-160,60,-90,-60,-60,-140,-130
-90,-250,-160,170,35,-205,60,-20,0,-20,-90,-110
-20,-270,-250,145,115,-260,30,60,80,60,-30,-90
60,-240,-300,90,180,-270,20,200,230,210,80,-20
100,-260,-360,80,230,-310,0,280,360,310,180,30
120,-200,-320,40,220,-260,-40,270,450,380,230,70
160,-90,-250,-35,205,-170,-100,340,630,540,350,160
190,30,-160,-110,175,-65,-140,460,850,730,500,270
260,240,-20,-250,140,110,-70,520,1059,899,650,380
270,400,130,-335,70,265,-60,340,1129,989,730,470
270,580,310,-425,-20,445,-130,-20,1069,1049,810,590
300,800,500,-550,-100,650,-210,-390,1019,1109,909,760
320,1039,720,-680,-200,879,-300,-720,959,1179,989,919
290,1339,1049,-815,-380,1194,-410,-1129,760,1129,989,1049
230,1619,1389,-924,-580,1504,-550,-1549,500,989,909,1119
160,1809,1649,-984,-745,1729,-660,-1849,290,869,820,1189
80,2109,2029,-1094,-974,2069,-760,-2199,60,710,690,1199
10,2359,2349,-1184,-1169,2354,-989,-2618,-280,490,520,1209
-10,2419,2429,-1204,-1219,2424,-1329,-2958,-690,240,350,1179
30,2329,2299,-1179,-1134,2314,-1639,-3168,-989,30,210,1169
80,2099,2019,-1089,-969,2059,-1789,-3148,-1099,-80,140,1129
60,1719,1659,-889,-800,1689,-1759,-2958,-1179,-210,20,979
0,1259,1259,-630,-630,1259,-1559,-2678,-1179,-340,-110,770
-70,830,899,-380,-485,865,-1389,-2509,-1319,-560,-310,520
-120,470,590,-175,-355,530,-1289,-2399,-1469,-810,-530,260
-200,100,300,50,-250,200,-1119,-2229,-1639,-1089,-780,-40
-270,-160,110,215,-190,-25,-840,-1989,-1669,-1239,-929,-290
-290,-240,50,265,-170,-95,-610,-1719,-1479,-1159,-929,-390
-300,-290,10,295,-155,-140,-480,-1439,-1209,-959,-810,-380
-280,-280,0,280,-140,-140,-410,-1219,-1009,-810,-700,-360
-240,-210,30,225,-135,-90,-350,-1019,-830,-660,-580,-300
-210,-180,30,195,-120,-75,-290,-830,-680,-530,-480,-250
-190,-200,-10,195,-90,-105,-190,-630,-520,-430,-390,-210
-180,-220,-40,200,-70,-130,-110,-470,-380,-330,-320,-180
-160,-190,-30,175,-65,-110,-30,-330,-250,-250,-250,-150
-120,-130,-10,125,-55,-70,-20,-220,-160,-170,-200,-130
-100,-110,-10,105,-45,-60,10,-130,-70,-90,-140,-100
-90,-80,10,85,-50,-35,20,-60,-10,-40,-100,-90
-80,-70,10,75,-45,-30,50,-10,30,0,-60,-80
-80,-80,0,80,-40,-40,40,10,20,-10,-70,-80
-70,-80,-10,75,-30,-45,60,40,30,0,-50,-70
-90,-90,0,90,-45,-45,70,80,30,0,-50,-60
-110,-90,20,100,-65,-35,80,90,20,-20,-60,-70
-100,-100,0,100,-50,-50,70,110,30,-30,-80,-70
-100,-110,-10,105,-45,-60,80,130,50,-10,-70,-80
-80,-100,-20,90,-30,-60,80,150,70,0,-80,-80
-60,-100,-40,80,-10,-70,80,130,80,0,-80,-100
-60,-120,-60,90,0,-90,80,130,100,30,-50,-100
-50,-120,-70,85,10,-95,80,140,100,50,-40,-100
-40,-120,-80,80,20,-100,70,160,110,60,-20,-90
-60,-100,-40,80,-10,-70,90,190,120,50,-10,-70
-60,-90,-30,75,-15,-60,110,210,120,60,0,-50
-70,-90,-20,80,-25,-55,110,210,120,40,-20,-60
-50,-80,-30,65,-10,-55,100,230,120,30,-30,-60
-40,-70,-30,55,-5,-50,100,230,140,40,-20,-40
-50,-80,-30,65,-10,-55,100,220,140,60,-20,-50
-30,-80,-50,55,10,-65,90,220,150,60,-30,-60
-50,-110,-60,80,5,-85,100,240,170,90,0,-40
-50,-120,-70,85,10,-95,100,240,170,100,0,-60
-30,-110,-80,70,25,-95,100,260,160,110,10,-60
-30,-110,-80,70,25,-95,100,280,170,100,20,-30
-30,-80,-50,55,10,-65,110,300,180,110,20,-10
-50,-90,-40,70,-5,-65,110,320,180,110,10,-10
-50,-70,-20,60,-15,-45,90,320,180,90,0,-10
-40,-50,-10,45,-15,-30,110,320,200,90,0,-20
-30,-60,-30,45,0,-45,100,310,200,110,0,-30
-40,-80,-40,60,0,-60,110,300,220,100,10,-30
-40,-70,-30,55,-5,-50,100,310,240,120,30,-20
-50,-100,-50,75,0,-75,100,320,230,140,40,-20
-20,-100,-80,60,30,-90,90,320,230,140,40,-20
-20,-90,-70,55,25,-80,100,340,240,140,50,0
-40,-80,-40,60,0,-60,80,350,230,140,50,20
-50,-60,-10,55,-20,-35,100,370,240,140,50,20
-40,-60,-20,50,-10,-40,100,390,250,140,40,30
-30,-50,-20,40,-5,-35,110,390,260,140,50,20
-20,-40,-20,30,0,-30,100,390,260,160,50,20
-20,-50,-30,35,5,-40,110,380,280,170,60,10
-20,-60,-40,40,10,-50,110,380,300,190,80,20
-30,-80,-50,55,10,-65,100,390,300,200,90,20
-20,-80,-60,50,20,-70,100,410,310,210,100,30
-20,-60,-40,40,10,-50,100,420,310,210,110,40
-40,-50,-10,45,-15,-30,110,440,300,210,100,40
-30,-40,-10,35,-10,-25,130,460,320,200,100,50
-10,-20,-10,15,0,-15,120,450,320,190,90,50
-10,-40,-30,25,10,-35,130,470,340,210,100,50
10,-20,-30,5,20,-25,130,480,360,240,110,50
10,-20,-30,5,20,-25,120,480,380,250,120,40
0,-40,-40,20,20,-40,120,490,400,270,140,60
10,-30,-40,10,25,-35,120,500,410,290,160,60
10,-30,-40,10,25,-35,120,510,410,310,170,80
10,-30,-40,10,25,-35,120,530,410,310,180,80
10,-20,-30,5,20,-25,130,560,420,320,190,120
0,-20,-20,10,10,-20,120,560,400,300,170,100
30,10,-20,-20,25,-5,110,560,420,300,170,100
20,10,-10,-15,15,0,110,570,440,300,170,100
30,20,-10,-25,20,5,110,590,470,340,190,120
50,20,-30,-35,40,-5,120,600,500,360,200,140
50,0,-50,-25,50,-25,110,600,520,370,230,140
50,0,-50,-25,50,-25,120,620,530,400,260,150
70,20,-50,-45,60,-15,110,630,550,430,270,170
70,30,-40,-50,55,-5,100,650,550,430,270,170
60,30,-30,-45,45,0,110,680,560,440,290,190
50,40,-10,-45,30,15,110,700,580,450,300,200
60,50,-10,-55,35,20,110,720,590,450,290,210
80,60,-20,-70,50,20,110,740,630,470,310,220
80,60,-20,-70,50,20,110,750,660,500,320,220
90,60,-30,-75,60,15,100,760,690,520,350,230
110,70,-40,-90,75,15,100,780,730,570,380,260
100,70,-30,-85,65,20,110,810,760,600,410,270
110,90,-20,-100,65,35,110,830,770,640,440,310
110,100,-10,-105,60,45,110,869,790,660,460,320
110,120,10,-115,50,65,110,899,810,670,480,340
120,120,0,-120,60,60,90,909,830,670,480,330
120,130,10,-125,55,70,90,939,850,690,480,360
150,140,-10,-145,80,65,100,979,909,730,510,390
170,150,-20,-160,95,65,90,999,929,750,540,410
160,140,-20,-150,90,60,80,1009,969,770,570,410
190,170,-20,-180,105,75,80,1019,1009,820,600,420
190,180,-10,-185,100,85,90,1049,1049,869,640,440
200,190,-10,-195,105,90,80,1069,1069,899,670,480
220,230,10,-225,105,120,90,1119,1109,929,700,500
210,250,40,-230,85,145,80,1139,1119,939,710,530
230,270,40,-250,95,155,80,1159,1149,949,730,540
250,300,50,-275,100,175,80,1179,1169,979,750,570
240,280,40,-260,100,160,80,1199,1199,989,770,580
250,310,60,-280,95,185,60,1209,1209,1009,770,590
270,320,50,-295,110,185,50,1219,1239,1019,790,600
270,320,50,-295,110,185,50,1229,1259,1059,820,610
270,330,60,-300,105,195,60,1249,1279,1099,850,650
260,350,90,-305,85,220,60,1269,1289,1119,879,670
280,380,100,-330,90,240,60,1279,1299,1119,889,670
290,400,110,-345,90,255,50,1289,1299,1119,899,680
290,410,120,-350,85,265,50,1299,1299,1129,889,690
300,440,140,-370,80,290,40,1309,1299,1119,879,710
300,440,140,-370,80,290,40,1299,1309,1119,869,700
290,460,170,-375,60,315,40,1289,1309,1109,879,700
290,450,160,-370,65,305,50,1299,1329,1119,899,710
290,450,160,-370,65,305,30,1289,1309,1139,889,690
300,460,160,-380,70,310,40,1289,1309,1119,899,700
300,460,160,-380,70,310,30,1269,1289,1109,879,700
280,440,160,-360,60,300,40,1269,1279,1099,879,700
270,460,190,-365,40,325,40,1249,1239,1079,850,690
270,480,210,-375,30,345,40,1249,1219,1049,840,690
280,470,190,-375,45,330,50,1219,1179,1009,810,670
270,480,210,-375,30,345,70,1199,1159,979,770,650
240,450,210,-345,15,330,70,1169,1129,949,750,630
240,470,230,-355,5,350,60,1109,1079,899,710,600
220,450,230,-335,-5,340,70,1069,1039,879,680,570
190,450,260,-320,-35,355,80,1029,989,830,660,530
170,440,270,-305,-50,355,90,1009,919,780,620,500
150,410,260,-280,-55,335,90,959,850,700,560,470
130,390,260,-260,-65,325,100,929,790,650,520,450
130,390,260,-260,-65,325,100,879,740,600,470,420
110,390,280,-250,-85,335,90,820,670,520,400,350
90,370,280,-230,-95,325,120,790,620,480,360,330
90,330,240,-210,-75,285,120,740,590,440,320,300
90,310,220,-200,-65,265,110,690,540,390,280,250
70,290,220,-180,-75,255,110,650,490,360,250,230
50,250,200,-150,-75,225,120,600,440,330,220,190
20,230,210,-125,-95,220,120,560,380,280,190,180
10,220,210,-115,-100,215,110,530,340,240,160,170
-20,190,210,-85,-115,200,120,500,280,190,110,140
-30,180,210,-75,-120,195,100,470,230,150,90,110
-20,160,180,-70,-100,170,110,450,220,110,60,100
-30,160,190,-65,-110,175,110,410,170,60,20,60
-40,130,170,-45,-105,150,110,390,160,50,0,50
-60,120,180,-30,-120,150,100,360,130,20,-20,20
-40,110,150,-35,-95,130,100,330,110,20,-30,10
-40,90,130,-25,-85,110,110,320,100,10,-30,10
-60,70,130,-5,-95,100,90,290,70,-10,-60,0
-60,50,110,5,-85,80,100,290,60,-20,-60,0
-80,50,130,15,-105,90,80,270,20,-60,-100,-20
-90,50,140,20,-115,95,90,260,0,-80,-120,-20
-70,60,130,5,-100,95,80,250,-30,-100,-140,-40
-90,30,120,30,-105,75,70,230,-40,-120,-160,-60
-90,10,100,40,-95,55,70,220,-40,-130,-160,-60
-90,10,100,40,-95,55,70,200,-30,-130,-150,-60
-90,-20,70,55,-80,25,70,180,-40,-120,-150,-70
-100,-20,80,60,-90,30,90,190,-30,-110,-150,-60
-100,-20,80,60,-90,30,80,180,-50,-110,-150,-80
-60,-20,40,40,-50,10,60,160,-70,-140,-160,-80
-70,-20,50,45,-60,15,60,160,-70,-140,-180,-90
-110,-20,90,65,-100,35,70,170,-90,-160,-190,-80
-120,-20,100,70,-110,40,70,170,-90,-160,-190,-80
-120,-20,100,70,-110,40,80,180,-70,-160,-190,-80
-120,-50,70,85,-95,10,80,160,-80,-160,-190,-80
-50,-40,10,45,-30,-15,50,120,-100,-200,-210,-110
-50,-50,0,50,-25,-25,40,110,-90,-180,-210,-110
-70,-60,10,65,-40,-25,50,120,-110,-170,-190,-100
-80,-40,40,60,-60,0,50,130,-110,-160,-190,-90
-80,-30,50,55,-65,10,50,130,-120,-170,-190,-100
-70,-40,30,55,-50,-5,50,120,-130,-190,-210,-110
-70,-40,30,55,-50,-5,40,130,-130,-200,-210,-100
-90,-50,40,70,-65,-5,50,140,-130,-200,-220,-100
-80,-40,40,60,-60,0,50,130,-130,-210,-230,-110
-90,-60,30,75,-60,-15,50,110,-130,-210,-230,-100
-100,-60,40,80,-70,-10,50,110,-130,-200,-220,-100
-70,-60,10,65,-40,-25,40,110,-120,-190,-210,-100
-80,-70,10,75,-45,-30,40,90,-130,-200,-230,-100
-70,-50,20,60,-45,-15,30,100,-130,-200,-220,-90
-80,-50,30,65,-55,-10,50,110,-130,-190,-230,-100
-90,-50,40,70,-65,-5,50,100,-130,-200,-240,-100
-80,-30,50,55,-65,10,40,110,-130,-210,-240,-80
-80,-30,50,55,-65,10,60,120,-150,-220,-250,-100
-90,-40,50,65,-70,5,60,120,-140,-220,-250,-100
-100,-50,50,75,-75,0,60,110,-140,-220,-250,-110
-100,-80,20,90,-60,-30,60,100,-150,-230,-260,-130
-90,-70,20,80,-55,-25,50,90,-130,-200,-250,-130
-90,-60,30,75,-60,-15,60,90,-120,-190,-230,-100
-110,-60,50,85,-80,-5,60,100,-120,-200,-220,-100
-100,-50,50,75,-75,0,60,110,-120,-200,-230,-90
-110,-50,60,80,-85,5,60,100,-120,-210,-230,-100
-100,-50,50,75,-75,0,60,120,-120,-210,-230,-80
-80,-50,30,65,-55,-10,70,140,-120,-210,-230,-80
-90,-50,40,70,-65,-5,60,130,-120,-210,-240,-90
-90,-50,40,70,-65,-5,60,130,-110,-210,-230,-90
-90,-50,40,70,-65,-5,50,120,-110,-220,-240,-100
-70,-70,0,70,-35,-35,50,110,-110,-210,-230,-100
-70,-60,10,65,-40,-25,50,120,-90,-190,-210,-80
-90,-70,20,80,-55,-25,50,120,-90,-190,-200,-80
-80,-60,20,70,-50,-20,50,130,-90,-200,-230,-90
-80,-40,40,60,-60,0,60,130,-90,-200,-210,-70
-90,-40,50,65,-70,5,50,130,-90,-200,-220,-90
-80,-40,40,60,-60,0,70,170,-80,-190,-220,-80
-80,-30,50,55,-65,10,50,160,-70,-200,-240,-90
-80,-40,40,60,-60,0,60,150,-60,-190,-230,-90
-60,-20,40,40,-50,10,50,140,-60,-190,-230,-90
-70,-40,30,55,-50,-5,60,140,-60,-180,-210,-90
-70,-50,20,60,-45,-15,70,130,-40,-170,-210,-90
-70,-50,20,60,-45,-15,80,140,-40,-160,-200,-80
-90,-50,40,70,-65,-5,50,140,-60,-190,-210,-90
-80,-50,30,65,-55,-10,60,160,-60,-190,-210,-80
-80,-40,40,60,-60,0,60,160,-60,-190,-210,-80
-70,-40,30,55,-50,-5,60,180,-60,-190,-210,-80
-50,-30,20,40,-35,-5,70,180,-50,-190,-210,-80
-60,-50,10,55,-35,-20,70,170,-40,-190,-210,-80
-60,-60,0,60,-30,-30,70,180,-30,-160,-190,-60
-50,-60,-10,55,-20,-35,70,170,-30,-160,-190,-70
-60,-70,-10,65,-25,-40,70,160,-20,-150,-180,-70
-50,-60,-10,55,-20,-35,70,160,-30,-150,-180,-70
-60,-60,0,60,-30,-30,60,170,-30,-160,-190,-60
-60,-60,0,60,-30,-30,60,170,-30,-160,-180,-70
-60,-60,0,60,-30,-30,70,190,-30,-170,-180,-60
-80,-60,20,70,-50,-20,50,180,-40,-180,-190,-70
-70,-50,20,60,-45,-15,50,170,-50,-190,-200,-70
-60,-60,0,60,-30,-30,70,170,-40,-180,-190,-60
-60,-60,0,60,-30,-30,70,170,-30,-170,-190,-50
-50,-60,-10,55,-20,-35,60,170,-30,-160,-200,-50
-60,-60,0,60,-30,-30,70,160,-30,-160,-190,-50
-70,-70,0,70,-35,-35,60,150,-40,-160,-190,-50
-50,-60,-10,55,-20,-35,50,150,-50,-180,-200,-50
-70,-60,10,65,-40,-25,50,140,-60,-180,-200,-60
-60,-50,10,55,-35,-20,60,150,-60,-200,-210,-60
-50,-50,0,50,-25,-25,70,170,-50,-190,-210,-60
-60,-60,0,60,-30,-30,60,170,-50,-190,-220,-60
-60,-60,0,60,-30,-30,80,160,-40,-190,-200,-50
-50,-60,-10,55,-20,-35,60,140,-50,-200,-210,-60
-50,-70,-20,60,-15,-45,60,140,-40,-170,-200,-60
-40,-50,-10,45,-15,-30,70,140,-30,-170,-190,-50
-60,-80,-20,70,-20,-50,60,130,-50,-170,-190,-60
-40,-60,-20,50,-10,-40,50,130,-60,-190,-210,-60
-30,-50,-20,40,-5,-35,50,140,-60,-210,-210,-60
-40,-40,0,40,-20,-20,40,130,-80,-220,-220,-60
-50,-40,10,45,-30,-15,60,160,-70,-210,-210,-60
-60,-60,0,60,-30,-30,50,140,-70,-220,-220,-70
-60,-70,-10,65,-25,-40,60,140,-70,-210,-220,-80
-40,-50,-10,45,-15,-30,50,130,-70,-210,-210,-70
-50,-70,-20,60,-15,-45,50,130,-60,-210,-210,-80
-30,-60,-30,45,0,-45,60,130,-60,-190,-200,-70
-40,-50,-10,45,-15,-30,60,120,-70,-190,-200,-60
-40,-50,-10,45,-15,-30,60,130,-70,-210,-230,-70
-30,-50,-20,40,-5,-35,50,120,-80,-240,-240,-80
-50,-50,0,50,-25,-25,50,130,-90,-240,-240,-80
-60,-60,0,60,-30,-30,60,140,-100,-240,-240,-80
-50,-60,-10,55,-20,-35,60,110,-100,-260,-260,-100
-60,-80,-20,70,-20,-50,60,100,-110,-260,-260,-100
-60,-80,-20,70,-20,-50,60,100,-110,-250,-250,-90
-70,-80,-10,75,-30,-45,60,110,-90,-250,-240,-90
-70,-90,-20,80,-25,-55,60,80,-100,-250,-250,-110
-50,-70,-20,60,-15,-45,60,100,-100,-230,-230,-100
-50,-70,-20,60,-15,-45,50,100,-110,-250,-250,-90
-80,-60,20,70,-50,-20,50,100,-120,-260,-240,-100
-50,-40,10,45,-30,-15,50,110,-110,-250,-240,-80
-70,-60,10,65,-40,-25,60,110,-110,-260,-250,-90
-60,-60,0,60,-30,-30,70,100,-110,-260,-250,-90
-70,-80,-10,75,-30,-45,60,90,-120,-260,-250,-100
-80,-90,-10,85,-35,-50,60,90,-120,-250,-250,-100
-70,-80,-10,75,-30,-45,60,100,-100,-240,-240,-100
-60,-80,-20,70,-20,-50,50,80,-100,-250,-250,-100
-70,-100,-30,85,-20,-65,50,90,-110,-260,-240,-100
-70,-90,-20,80,-25,-55,60,90,-100,-250,-240,-90
-70,-100,-30,85,-20,-65,50,80,-110,-270,-260,-90
-50,-80,-30,65,-10,-55,40,90,-120,-280,-260,-90
-60,-90,-30,75,-15,-60,30,90,-130,-280,-270,-90
-60,-80,-20,70,-20,-50,40,70,-120,-290,-280,-100
-50,-80,-30,65,-10,-55,70,80,-110,-280,-260,-100
-60,-100,-40,80,-10,-70,70,80,-120,-270,-270,-100
-40,-110,-70,75,15,-90,70,70,-120,-270,-270,-110
-50,-110,-60,80,5,-85,60,60,-120,-280,-270,-110
-70,-120,-50,95,-10,-85,50,70,-130,-280,-260,-110
-60,-110,-50,85,-5,-80,60,70,-120,-280,-260,-100
-60,-90,-30,75,-15,-60,60,60,-120,-280,-260,-100
-50,-80,-30,65,-10,-55,50,70,-130,-290,-260,-100
-50,-80,-30,65,-10,-55,60,70,-130,-290,-270,-100
-70,-80,-10,75,-30,-45,50,70,-130,-290,-270,-100
-60,-90,-30,75,-15,-60,60,80,-120,-280,-250,-90
-40,-70,-30,55,-5,-50,60,70,-120,-260,-240,-90
-70,-100,-30,85,-20,-65,60,70,-120,-270,-250,-100
-90,-120,-30,105,-30,-75,40,50,-130,-280,-250,-100
-110,-150,-40,130,-35,-95,40,50,-130,-290,-250,-110
-70,-110,-40,90,-15,-75,50,40,-140,-290,-280,-110
-40,-90,-50,65,5,-70,60,50,-140,-290,-270,-100
-60,-100,-40,80,-10,-70,50,50,-150,-310,-280,-90
-60,-110,-50,85,-5,-80,50,80,-150,-300,-270,-90
-60,-110,-50,85,-5,-80,60,70,-130,-300,-280,-90
-50,-100,-50,75,0,-75,50,60,-140,-310,-280,-100
-50,-90,-40,70,-5,-65,60,50,-140,-310,-280,-110
-40,-90,-50,65,5,-70,70,40,-140,-310,-280,-120
-70,-100,-30,85,-20,-65,70,30,-140,-310,-280,-120
-60,-90,-30,75,-15,-60,60,40,-150,-310,-270,-110
-80,-90,-10,85,-35,-50,60,40,-140,-300,-270,-100
-50,-80,-30,65,-10,-55,50,40,-150,-310,-280,-110
-40,-80,-40,60,0,-60,60,50,-150,-290,-270,-90
-80,-120,-40,100,-20,-80,30,50,-160,-320,-280,-110
-70,-110,-40,90,-15,-75,40,50,-160,-320,-280,-100
-60,-110,-50,85,-5,-80,60,60,-140,-310,-260,-90
-40,-90,-50,65,5,-70,60,50,-140,-310,-260,-100
-60,-130,-70,95,5,-100,50,40,-140,-320,-270,-110
-60,-130,-70,95,5,-100,40,20,-160,-330,-270,-110
-40,-80,-40,60,0,-60,40,40,-150,-320,-280,-100
-40,-80,-40,60,0,-60,50,50,-150,-310,-280,-90
-40,-100,-60,70,10,-80,60,40,-150,-320,-280,-90
-50,-90,-40,70,-5,-65,50,50,-150,-320,-280,-90
-70,-110,-40,90,-15,-75,60,40,-160,-340,-300,-100
-80,-110,-30,95,-25,-70,50,30,-170,-350,-310,-110
-50,-110,-60,80,5,-85,70,30,-170,-340,-290,-110
-70,-130,-60,100,-5,-95,70,30,-160,-330,-280,-100
-40,-110,-70,75,15,-90,70,40,-150,-310,-270,-100
-40,-90,-50,65,5,-70,50,30,-160,-310,-270,-100
-50,-110,-60,80,5,-85,60,40,-170,-310,-270,-90
-50,-100,-50,75,0,-75,60,40,-160,-310,-270,-100
-60,-100,-40,80,-10,-70,60,30,-160,-300,-270,-100
-50,-100,-50,75,0,-75,50,40,-170,-340,-280,-100
-50,-100,-50,75,0,-75,60,30,-160,-340,-280,-100
-60,-100,-40,80,-10,-70,40,30,-170,-350,-290,-120
-50,-80,-30,65,-10,-55,50,30,-170,-360,-280,-120
-60,-90,-30,75,-15,-60,50,40,-180,-340,-290,-120
-80,-120,-40,100,-20,-80,50,20,-170,-330,-300,-130
-60,-110,-50,85,-5,-80,50,20,-180,-330,-290,-120
-50,-110,-60,80,5,-85,50,40,-160,-310,-280,-100
-50,-110,-60,80,5,-85,50,30,-170,-330,-280,-110
-70,-110,-40,90,-15,-75,70,40,-150,-320,-260,-90
-70,-110,-40,90,-15,-75,60,40,-160,-330,-270,-90
-40,-110,-70,75,15,-90,60,40,-170,-350,-290,-100
-40,-110,-70,75,15,-90,70,30,-180,-360,-300,-130
-50,-120,-70,85,10,-95,70,30,-170,-340,-290,-120
-50,-100,-50,75,0,-75,80,40,-160,-320,-270,-100
-40,-120,-80,80,20,-100,60,20,-170,-330,-280,-120
-50,-120,-70,85,10,-95,60,20,-180,-340,-280,-120
-40,-120,-80,80,20,-100,70,30,-160,-330,-270,-110
-50,-120,-70,85,10,-95,70,40,-170,-340,-260,-110
-30,-90,-60,60,15,-75,70,30,-170,-350,-270,-110
-50,-90,-40,70,-5,-65,60,30,-180,-350,-290,-110
-40,-100,-60,70,10,-80,60,30,-170,-360,-290,-110
-50,-110,-60,80,5,-85,70,30,-170,-360,-290,-120
-50,-120,-70,85,10,-95,60,30,-170,-350,-300,-120
-40,-100,-60,70,10,-80,50,20,-170,-350,-310,-120
-60,-110,-50,85,-5,-80,60,10,-170,-370,-300,-130
-80,-130,-50,105,-15,-90,60,30,-180,-350,-300,-130
-50,-120,-70,85,10,-95,60,30,-190,-350,-300,-120
-30,-110,-80,70,25,-95,70,30,-190,-350,-290,-110
-50,-100,-50,75,0,-75,80,30,-180,-340,-280,-100
-40,-80,-40,60,0,-60,90,40,-190,-360,-280,-90
-40,-80,-40,60,0,-60,80,40,-190,-360,-300,-110
-30,-60,-30,45,0,-45,80,40,-180,-360,-290,-110
-40,-60,-20,50,-10,-40,90,50,-170,-360,-280,-110
-40,-60,-20,50,-10,-40,90,50,-170,-350,-280,-110
-30,-50,-20,40,-5,-35,100,40,-170,-350,-270,-110
-30,-60,-30,45,0,-45,110,40,-170,-340,-270,-100
-50,-60,-10,55,-20,-35,90,30,-180,-350,-280,-110
-40,-40,0,40,-20,-20,100,40,-180,-340,-270,-90
-70,-60,10,65,-40,-25,120,60,-170,-340,-270,-80
-80,-50,30,65,-55,-10,120,60,-170,-350,-270,-80
-50,-30,20,40,-35,-5,120,60,-190,-360,-300,-90
-20,-30,-10,25,-5,-20,130,70,-170,-350,-280,-100
-20,-20,0,20,-10,-10,140,80,-160,-330,-270,-90
-20,-40,-20,30,0,-30,110,60,-160,-330,-280,-100
40,-50,-90,5,65,-70,110,90,-130,-320,-260,-90
40,-60,-100,10,70,-80,130,100,-130,-300,-240,-80
10,-90,-100,40,55,-95,120,120,-120,-290,-240,-80
20,-100,-120,40,70,-110,110,140,-100,-300,-220,-60
10,-120,-130,55,70,-125,110,160,-100,-280,-220,-60
0,-140,-140,70,70,-140,100,150,-110,-290,-220,-70
10,-130,-140,60,75,-135,80,150,-100,-290,-220,-60
0,-140,-140,70,70,-140,60,110,-120,-310,-230,-70
10,-120,-130,55,70,-125,50,90,-150,-320,-250,-90
20,-100,-120,40,70,-110,50,80,-150,-320,-250,-80
10,-130,-140,60,75,-135,40,70,-150,-330,-260,-100
20,-150,-170,65,95,-160,60,80,-150,-310,-240,-80
30,-110,-140,40,85,-125,50,90,-140,-310,-230,-60
30,-110,-140,40,85,-125,40,70,-150,-330,-240,-60
50,-120,-170,35,110,-145,50,70,-150,-320,-240,-60
30,-130,-160,50,95,-145,70,90,-160,-300,-230,-50
20,-140,-160,60,90,-150,50,80,-170,-330,-240,-60
30,-130,-160,50,95,-145,60,80,-160,-320,-250,-60
30,-120,-150,45,90,-135,70,100,-150,-310,-240,-60
50,-100,-150,25,100,-125,80,110,-140,-310,-230,-40
60,-100,-160,20,110,-130,80,100,-130,-300,-210,-30
60,-100,-160,20,110,-130,70,100,-140,-290,-210,-30
60,-90,-150,15,105,-120,80,90,-140,-310,-230,-40
30,-80,-110,25,70,-95,80,70,-150,-320,-230,-40
20,-80,-100,30,60,-90,90,60,-160,-320,-240,-50
10,-80,-90,35,50,-85,110,100,-150,-300,-230,-50
-10,-80,-70,45,30,-75,100,90,-160,-340,-260,-70
-10,-100,-90,55,40,-95,130,100,-160,-330,-250,-70
-20,-110,-90,65,35,-100,130,100,-170,-340,-260,-80
-30,-140,-110,85,40,-125,120,70,-200,-370,-300,-100
-40,-150,-110,95,35,-130,120,40,-210,-380,-300,-120
-40,-150,-110,95,35,-130,100,20,-240,-400,-310,-130
-20,-140,-120,80,50,-130,100,30,-240,-410,-310,-140
-20,-130,-110,75,45,-120,90,20,-250,-410,-310,-130
-30,-150,-120,90,45,-135,100,10,-250,-430,-320,-140
-40,-150,-110,95,35,-130,100,30,-250,-430,-320,-120
-50,-170,-120,110,35,-145,90,30,-250,-430,-330,-120
-30,-180,-150,105,60,-165,100,10,-270,-440,-340,-130
-30,-180,-150,105,60,-165,110,10,-270,-440,-340,-140
-60,-160,-100,110,20,-130,100,0,-280,-450,-360,-150
-70,-150,-80,110,5,-115,110,0,-270,-430,-350,-150
-70,-150,-80,110,5,-115,100,0,-290,-440,-350,-150
-50,-140,-90,95,20,-115,100,10,-290,-450,-360,-150
-50,-150,-100,100,25,-125,130,30,-260,-430,-330,-120
-70,-150,-80,110,5,-115,120,20,-270,-450,-340,-130
-60,-160,-100,110,20,-130,110,30,-270,-450,-340,-130
-30,-140,-110,85,40,-125,140,40,-260,-430,-320,-110
-40,-140,-100,90,30,-120,120,30,-250,-420,-320,-130
-40,-140,-100,90,30,-120,110,10,-270,-440,-340,-140
-50,-140,-90,95,20,-115,110,20,-260,-420,-330,-130
-60,-150,-90,105,15,-120,120,20,-260,-420,-330,-140
-60,-160,-100,110,20,-130,130,30,-250,-410,-320,-150
-70,-180,-110,125,20,-145,140,70,-230,-380,-310,-140
-50,-220,-170,135,60,-195,150,120,-190,-350,-280,-120
-10,-230,-220,120,105,-225,150,180,-130,-300,-240,-120
30,-260,-290,115,160,-275,120,270,-40,-210,-160,-70
100,-270,-370,85,235,-320,120,390,120,-60,-40,0
150,-260,-410,55,280,-335,90,470,240,40,40,40
160,-220,-380,30,270,-300,30,450,310,100,90,90
210,-100,-310,-55,260,-205,-30,490,490,260,220,170
260,30,-230,-145,245,-100,-60,580,720,460,380,290
290,190,-100,-240,195,45,-20,680,949,650,560,390
320,350,30,-335,145,190,20,630,1089,810,690,500
330,530,200,-430,65,365,-30,370,1059,889,780,620
340,740,400,-540,-30,570,-130,-10,939,929,860,780
360,999,640,-680,-140,820,-190,-360,850,979,929,919
320,1299,979,-810,-330,1139,-260,-770,640,929,909,1039
260,1559,1299,-909,-520,1429,-380,-1199,330,760,800,1109
190,1769,1579,-979,-695,1674,-520,-1539,50,590,670,1119
90,2019,1929,-1054,-919,1974,-610,-1899,-210,390,490,1089
0,2329,2329,-1164,-1164,2329,-780,-2309,-590,140,310,1069
-40,2409,2449,-1184,-1244,2429,-1009,-2688,-1049,-170,100,1029
-10,2359,2369,-1174,-1189,2364,-1299,-2928,-1419,-420,-60,1029
30,2149,2119,-1089,-1044,2134,-1529,-2948,-1589,-570,-160,989
30,1819,1789,-924,-879,1804,-1559,-2798,-1669,-720,-280,850
10,1449,1439,-730,-715,1444,-1429,-2569,-1689,-830,-400,650
-50,1059,1109,-505,-580,1084,-1259,-2369,-1749,-1009,-570,430
-90,680,770,-295,-430,725,-1139,-2239,-1809,-1199,-760,200
-160,280,440,-60,-300,360,-979,-2079,-1899,-1419,-959,-90
-230,-70,160,150,-195,45,-710,-1829,-1879,-1549,-1099,-350
-240,-190,50,215,-145,-70,-480,-1559,-1679,-1469,-1079,-460
-250,-220,30,235,-140,-95,-330,-1279,-1389,-1259,-929,-440
-250,-260,-10,255,-120,-135,-260,-1069,-1179,-1079,-810,-400
-220,-210,10,215,-115,-100,-220,-889,-1019,-959,-720,-370
-180,-140,40,160,-110,-50,-180,-730,-860,-840,-620,-330
-160,-150,10,155,-85,-70,-110,-560,-720,-730,-540,-300
-120,-170,-50,145,-35,-110,-10,-390,-550,-620,-470,-260
-100,-160,-60,130,-20,-110,60,-260,-430,-530,-400,-230
-50,-100,-50,75,0,-75,100,-160,-310,-430,-330,-200
-40,-90,-50,65,5,-70,120,-70,-200,-350,-260,-170
-30,-70,-40,50,5,-55,130,0,-120,-270,-200,-140
-20,-40,-20,30,0,-30,150,60,-80,-220,-150,-110
-10,-50,-40,30,15,-45,140,60,-100,-240,-150,-120
-10,-90,-80,50,35,-85,140,90,-110,-230,-160,-120
-20,-90,-70,55,25,-80,160,120,-90,-230,-150,-120
-40,-100,-60,70,10,-80,170,110,-110,-250,-170,-140
-20,-90,-70,55,25,-80,160,130,-90,-260,-170,-140
-20,-90,-70,55,25,-80,160,140,-70,-240,-180,-130
-20,-110,-90,65,35,-100,160,140,-50,-220,-160,-150
-10,-110,-100,60,45,-105,170,130,-30,-210,-160,-160
-10,-130,-120,70,55,-125,170,140,-10,-200,-150,-160
0,-110,-110,55,55,-110,180,140,0,-160,-130,-160
20,-90,-110,35,65,-100,180,170,10,-150,-110,-140
-10,-100,-90,55,40,-95,170,170,0,-160,-110,-140
-10,-90,-80,50,35,-85,180,210,0,-140,-100,-110
-20,-90,-70,55,25,-80,190,200,0,-160,-110,-110
-20,-100,-80,60,30,-90,180,210,10,-170,-120,-120
-20,-90,-70,55,25,-80,200,210,30,-160,-120,-110
0,-100,-100,50,50,-100,190,210,40,-150,-110,-120
-10,-100,-90,55,40,-95,200,190,60,-140,-100,-130
10,-90,-100,40,55,-95,190,200,60,-110,-90,-120
0,-90,-90,45,45,-90,190,190,50,-90,-80,-110
20,-80,-100,30,60,-90,180,210,50,-80,-60,-110
0,-90,-90,45,45,-90,190,210,60,-80,-50,-90
0,-70,-70,35,35,-70,180,220,40,-100,-70,-90
10,-30,-40,10,25,-35,190,230,40,-100,-70,-80
0,-50,-50,25,25,-50,190,250,60,-100,-60,-70
-10,-60,-50,35,20,-55,200,250,80,-100,-70,-70
10,-70,-80,30,45,-75,190,240,90,-80,-70,-90
10,-90,-100,40,55,-95,190,230,120,-60,-50,-90
20,-90,-110,35,65,-100,200,240,130,-40,-30,-90
0,-90,-90,45,45,-90,200,240,130,-20,-20,-90
10,-80,-90,35,50,-85,200,250,130,-10,0,-80
10,-80,-90,35,50,-85,210,260,140,-10,0,-50
0,-70,-70,35,35,-70,200,270,130,-20,0,-40
0,-70,-70,35,35,-70,220,280,140,-10,0,-30
10,-70,-80,30,45,-75,210,300,150,-10,0,-30
10,-70,-80,30,45,-75,200,290,160,-20,-20,-40
20,-60,-80,20,50,-70,200,300,170,-10,-10,-50
10,-80,-90,35,50,-85,190,280,190,0,0,-60
10,-80,-90,35,50,-85,190,280,200,30,20,-50
30,-70,-100,20,65,-85,200,290,200,50,40,-40
40,-50,-90,5,65,-70,190,290,200,50,40,-50
30,-50,-80,10,55,-65,180,280,190,40,50,-40
30,-50,-80,10,55,-65,190,320,190,60,60,-20
30,-50,-80,10,55,-65,190,320,200,50,50,-20
40,-30,-70,-5,55,-50,200,330,210,40,50,-30
40,-30,-70,-5,55,-50,210,340,250,80,70,-10
40,-50,-90,5,65,-70,210,350,260,90,80,-20
60,-50,-110,-5,85,-80,210,330,280,100,90,-30
50,-70,-120,10,85,-95,180,330,280,120,100,-20
40,-60,-100,10,70,-80,200,350,310,150,130,10
40,-40,-80,-0,60,-60,190,350,310,170,140,20
40,-50,-90,5,65,-70,190,370,310,160,150,20
50,-30,-80,-10,65,-55,190,390,310,160,150,40
50,-30,-80,-10,65,-55,200,400,320,160,150,40
60,-20,-80,-20,70,-50,200,410,340,160,150,40
50,-20,-70,-15,60,-45,220,420,360,190,160,50
50,-30,-80,-10,65,-55,210,440,390,200,170,50
60,-10,-70,-25,65,-40,200,420,410,230,200,50
80,10,-70,-45,75,-30,190,420,420,240,220,60
80,-20,-100,-30,90,-60,200,430,440,290,240,90
90,-10,-100,-40,95,-55,200,450,450,320,270,110
80,-20,-100,-30,90,-60,180,450,440,300,280,100
60,-20,-80,-20,70,-50,190,500,470,330,300,130
80,10,-70,-45,75,-30,180,510,490,330,300,120
80,30,-50,-55,65,-10,190,530,510,340,310,140
120,40,-80,-80,100,-20,190,540,540,370,320,150
120,40,-80,-80,100,-20,180,550,570,390,330,150
110,40,-70,-75,90,-15,170,540,580,420,340,160
130,70,-60,-100,95,5,180,540,620,440,370,180
130,60,-70,-95,100,-5,170,560,630,470,390,190
130,70,-60,-100,95,5,160,580,650,500,410,210
130,80,-50,-105,90,15,170,600,670,510,450,230
120,90,-30,-105,75,30,170,630,700,530,450,250
140,120,-20,-130,80,50,170,660,720,570,480,260
160,120,-40,-140,100,40,160,680,770,590,500,310
160,110,-50,-135,105,30,160,700,810,620,520,340
180,120,-60,-150,120,30,160,730,850,660,540,340
190,130,-60,-160,125,35,160,730,899,700,580,360
200,140,-60,-170,130,40,150,740,939,730,610,390
210,140,-70,-175,140,35,160,780,969,770,650,410
210,150,-60,-180,135,45,130,790,969,800,660,420
210,180,-30,-195,120,75,130,820,989,820,700,450
210,200,-10,-205,110,95,130,840,1009,840,710,480
220,230,10,-225,105,120,110,850,1019,840,720,470
250,250,0,-250,125,125,110,869,1059,869,740,510
250,250,0,-250,125,125,110,889,1089,889,760,520
260,260,0,-260,130,130,100,889,1109,909,770,520
280,280,0,-280,140,140,80,889,1139,939,800,540
280,280,0,-280,140,140,80,889,1159,969,830,560
290,300,10,-295,140,155,80,899,1179,1009,850,590
300,320,20,-310,140,170,60,909,1169,999,869,600
310,340,30,-325,140,185,60,929,1169,1019,879,620
320,370,50,-345,135,210,70,949,1199,1039,889,640
300,370,70,-335,115,220,70,959,1199,1029,889,640
300,380,80,-340,110,230,60,939,1209,1019,889,650
300,380,80,-340,110,230,50,939,1219,1029,899,660
290,380,90,-335,100,235,60,969,1239,1049,899,650
310,390,80,-350,115,235,60,949,1239,1059,909,660
310,400,90,-355,110,245,50,929,1239,1049,899,650
300,400,100,-350,100,250,50,929,1229,1049,909,660
310,410,100,-360,105,255,40,929,1229,1059,939,680
310,420,110,-365,100,265,40,909,1179,1029,919,660
310,430,120,-370,95,275,50,919,1149,999,889,660
300,460,160,-380,70,310,50,899,1129,979,860,640
290,460,170,-375,60,315,60,869,1099,939,820,630
290,460,170,-375,60,315,60,850,1089,909,790,610
260,450,190,-355,35,320,60,810,1049,869,760,570
260,440,180,-350,40,310,70,770,999,830,730,520
260,430,170,-345,45,300,80,750,969,800,700,500
220,420,200,-320,10,310,80,720,909,760,670,480
210,420,210,-315,0,315,100,690,860,710,640,440
190,400,210,-295,-10,305,90,630,800,650,600,410
150,370,220,-260,-35,295,100,590,720,580,530,360
140,380,240,-260,-50,310,130,570,670,540,480,340
120,360,240,-240,-60,300,130,530,620,470,440,290
120,360,240,-240,-60,300,130,500,580,420,390,260
110,340,230,-225,-60,285,130,460,530,360,340,230
70,270,200,-170,-65,235,130,400,470,320,300,180
60,260,200,-160,-70,230,130,350,420,290,270,150
60,240,180,-150,-60,210,140,320,370,250,250,120
40,210,170,-125,-65,190,130,280,330,200,220,110
30,190,160,-110,-65,175,150,250,280,160,170,90
10,170,160,-90,-75,165,140,230,230,110,140,60
0,180,180,-90,-90,180,160,220,200,80,110,40
10,190,180,-100,-85,185,160,180,160,40,70,20
-30,150,180,-60,-105,165,160,150,130,10,40,-20
-20,140,160,-60,-90,150,150,110,110,-20,0,-50
10,140,130,-75,-60,135,160,80,80,-40,-10,-50
-20,90,110,-35,-65,100,160,60,70,-30,0,-30
-20,80,100,-30,-60,90,150,50,60,-50,0,-50
-30,70,100,-20,-65,85,150,20,10,-80,-20,-80
-60,40,100,10,-80,70,130,-10,-20,-100,-50,-80
-40,40,80,-0,-60,60,120,-30,-30,-120,-70,-110
-60,30,90,15,-75,60,130,-10,-40,-130,-80,-120
-60,30,90,15,-75,60,130,-30,-70,-160,-100,-110
-60,20,80,20,-70,50,120,-40,-70,-180,-120,-120
-70,20,90,25,-80,55,130,-60,-60,-180,-140,-140
-10,80,90,-35,-50,85,110,-70,-50,-170,-120,-170
-80,40,120,20,-100,80,100,-90,-70,-160,-120,-180
-110,-10,100,60,-105,45,110,-90,-70,-160,-130,-220
-60,-20,40,40,-50,10,110,-90,-70,-150,-120,-190
-50,-10,40,30,-45,15,100,-90,-110,-180,-100,-130
-70,-10,60,40,-65,25,110,-90,-120,-200,-130,-150
-80,-30,50,55,-65,10,110,-100,-130,-200,-140,-140
-80,-50,30,65,-55,-10,70,-130,-150,-230,-160,-150
-40,-30,10,35,-25,-10,70,-140,-140,-230,-160,-160
-30,-10,20,20,-25,5,90,-140,-120,-230,-170,-190
-50,-30,20,40,-35,-5,100,-150,-120,-220,-150,-180
-50,-60,-10,55,-20,-35,100,-150,-110,-210,-130,-160
-60,-70,-10,65,-25,-40,90,-160,-120,-220,-140,-170
-50,-60,-10,55,-20,-35,100,-160,-120,-210,-130,-150
-70,-80,-10,75,-30,-45,90,-160,-140,-220,-160,-150
-60,-60,0,60,-30,-30,80,-150,-160,-230,-160,-150
-70,-50,20,60,-45,-15,100,-160,-150,-230,-160,-150
-80,-50,30,65,-55,-10,80,-180,-180,-250,-190,-170
-70,-50,20,60,-45,-15,70,-170,-160,-240,-180,-160
-70,-60,10,65,-40,-25,80,-190,-150,-250,-190,-160
-60,-60,0,60,-30,-30,80,-210,-150,-240,-170,-150
-40,-50,-10,45,-15,-30,70,-210,-160,-230,-160,-160
-50,-70,-20,60,-15,-45,70,-200,-160,-210,-160,-140
-40,-70,-30,55,-5,-50,80,-200,-140,-200,-140,-120
-40,-70,-30,55,-5,-50,80,-210,-160,-220,-160,-120
-50,-70,-20,60,-15,-45,80,-200,-180,-240,-180,-130
-60,-70,-10,65,-25,-40,80,-200,-170,-250,-180,-140
-70,-50,20,60,-45,-15,80,-210,-170,-250,-190,-140
-70,-60,10,65,-40,-25,50,-220,-170,-260,-200,-150
-70,-60,10,65,-40,-25,70,-210,-150,-250,-190,-150
-70,-60,10,65,-40,-25,70,-220,-140,-250,-170,-140
-70,-60,10,65,-40,-25,70,-220,-140,-230,-160,-130
-50,-60,-10,55,-20,-35,80,-210,-140,-210,-150,-110
-60,-70,-10,65,-25,-40,70,-230,-140,-230,-160,-120
-70,-70,0,70,-35,-35,90,-200,-140,-230,-160,-120
-50,-60,-10,55,-20,-35,100,-190,-140,-220,-150,-120
-70,-60,10,65,-40,-25,90,-190,-150,-240,-170,-120
-60,-50,10,55,-35,-20,90,-180,-120,-230,-170,-120
-70,-60,10,65,-40,-25,80,-190,-130,-230,-180,-130
-70,-60,10,65,-40,-25,80,-200,-120,-220,-170,-130
-70,-80,-10,75,-30,-45,90,-190,-100,-220,-150,-120
-80,-80,0,80,-40,-40,80,-210,-110,-210,-150,-130
-60,-80,-20,70,-20,-50,80,-190,-100,-190,-130,-120
-70,-70,0,70,-35,-35,100,-180,-80,-180,-120,-100
-70,-70,0,70,-35,-35,90,-170,-90,-180,-130,-110
-50,-60,-10,55,-20,-35,90,-160,-80,-180,-140,-110
-70,-50,20,60,-45,-15,90,-160,-80,-200,-150,-110
-80,-70,10,75,-45,-30,90,-160,-70,-200,-150,-120
-70,-70,0,70,-35,-35,70,-170,-80,-200,-170,-140
-70,-80,-10,75,-30,-45,70,-180,-50,-180,-150,-120
-60,-70,-10,65,-25,-40,70,-190,-50,-180,-140,-120
-70,-70,0,70,-35,-35,80,-180,-40,-160,-130,-120
-80,-110,-30,95,-25,-70,70,-180,-50,-150,-120,-120
-80,-110,-30,95,-25,-70,80,-160,-30,-150,-110,-120
-90,-110,-20,100,-35,-65,90,-160,-40,-150,-120,-110
-80,-90,-10,85,-35,-50,80,-150,-40,-150,-120,-110
-60,-70,-10,65,-25,-40,90,-140,-30,-150,-110,-100
-70,-80,-10,75,-30,-45,80,-150,-30,-170,-140,-120
-60,-70,-10,65,-25,-40,70,-150,-30,-170,-140,-120
-50,-70,-20,60,-15,-45,70,-150,0,-150,-130,-120
-50,-80,-30,65,-10,-55,80,-140,10,-150,-110,-110
-50,-90,-40,70,-5,-65,80,-140,10,-140,-100,-120
-60,-100,-40,80,-10,-70,80,-140,20,-130,-90,-120
-60,-120,-60,90,0,-90,80,-150,0,-140,-100,-120
-50,-110,-60,80,5,-85,80,-140,0,-140,-90,-100
-60,-100,-40,80,-10,-70,80,-140,-10,-140,-100,-120
-40,-80,-40,60,0,-60,80,-140,0,-140,-110,-110
-50,-90,-40,70,-5,-65,90,-120,20,-140,-110,-110
-50,-90,-40,70,-5,-65,60,-130,10,-140,-120,-110
-30,-60,-30,45,0,-45,70,-140,20,-130,-110,-120
-40,-80,-40,60,0,-60,70,-130,30,-120,-100,-100
-40,-100,-60,70,10,-80,70,-130,20,-120,-80,-100
-40,-90,-50,65,5,-70,60,-150,20,-110,-80,-100
-60,-120,-60,90,0,-90,60,-150,20,-110,-80,-100
-60,-120,-60,90,0,-90,60,-140,30,-120,-90,-90
-50,-120,-70,85,10,-95,60,-130,20,-130,-90,-90
-60,-120,-60,90,0,-90,40,-150,10,-150,-100,-100
-50,-100,-50,75,0,-75,60,-140,20,-140,-110,-110
-40,-90,-50,65,5,-70,50,-130,20,-140,-110,-110
-40,-90,-50,65,5,-70,60,-140,20,-140,-100,-90
-40,-90,-50,65,5,-70,60,-170,40,-130,-100,-100
-50,-110,-60,80,5,-85,50,-160,30,-120,-90,-110
-40,-100,-60,70,10,-80,50,-170,20,-110,-80,-100
-50,-120,-70,85,10,-95,60,-170,30,-110,-70,-100
-50,-120,-70,85,10,-95,50,-160,20,-120,-90,-100
-40,-100,-60,70,10,-80,50,-150,0,-120,-90,-110
-40,-100,-60,70,10,-80,50,-160,10,-140,-100,-100
-40,-110,-70,75,15,-90,40,-160,0,-140,-120,-100
-40,-100,-60,70,10,-80,50,-170,0,-130,-110,-100
-40,-110,-70,75,15,-90,40,-180,10,-140,-110,-100
-40,-120,-80,80,20,-100,60,-170,40,-130,-90,-80
-40,-120,-80,80,20,-100,50,-170,20,-120,-100,-100
-30,-120,-90,75,30,-105,40,-190,10,-120,-90,-100
-30,-120,-90,75,30,-105,50,-180,30,-110,-90,-80
-30,-110,-80,70,25,-95,60,-170,20,-120,-90,-90
-30,-110,-80,70,25,-95,50,-180,0,-130,-100,-90
-40,-120,-80,80,20,-100,50,-170,10,-140,-100,-90
-70,-140,-70,105,0,-105,50,-170,10,-150,-110,-100
-60,-130,-70,95,5,-100,40,-180,-10,-160,-120,-110
-50,-130,-80,90,15,-105,30,-200,-10,-150,-120,-130
-50,-120,-70,85,10,-95,40,-190,10,-150,-120,-130
-20,-110,-90,65,35,-100,40,-190,20,-130,-110,-110
-20,-120,-100,70,40,-110,40,-200,10,-120,-100,-100
-20,-120,-100,70,40,-110,50,-190,30,-110,-80,-100
-30,-130,-100,80,35,-115,40,-200,10,-140,-110,-120
-50,-140,-90,95,20,-115,40,-200,-10,-150,-110,-120
-40,-120,-80,80,20,-100,30,-190,-10,-160,-120,-120
-60,-140,-80,100,10,-110,30,-190,0,-150,-120,-110
-50,-140,-90,95,20,-115,30,-210,-10,-170,-130,-120
-40,-120,-80,80,20,-100,30,-210,-20,-150,-140,-130
-50,-150,-100,100,25,-125,30,-200,0,-150,-130,-140
-70,-150,-80,110,5,-115,40,-220,0,-130,-120,-150
-60,-140,-80,100,10,-110,30,-230,-20,-140,-120,-150
-70,-160,-90,115,10,-125,30,-220,-10,-130,-120,-140
-50,-140,-90,95,20,-115,20,-210,-30,-150,-120,-140
-70,-140,-70,105,0,-105,30,-220,-40,-160,-130,-150
-60,-140,-80,100,10,-110,20,-210,-30,-160,-140,-150
-60,-150,-90,105,15,-120,20,-200,-20,-160,-140,-150
-70,-150,-80,110,5,-115,10,-220,-30,-170,-150,-160
-60,-130,-70,95,5,-100,20,-230,-40,-160,-140,-160
-60,-140,-80,100,10,-110,20,-210,-10,-140,-130,-150
-70,-150,-80,110,5,-115,20,-220,-10,-130,-130,-160
-40,-130,-90,85,25,-110,10,-230,-20,-140,-130,-150
-40,-140,-100,90,30,-120,-10,-230,-30,-140,-130,-170
-40,-140,-100,90,30,-120,0,-220,-30,-140,-140,-170
-30,-130,-100,80,35,-115,0,-230,-40,-150,-140,-170
-40,-140,-100,90,30,-120,-10,-230,-30,-150,-140,-150
-40,-130,-90,85,25,-110,10,-210,-20,-150,-130,-150
-30,-100,-70,65,20,-85,10,-210,-30,-160,-140,-160
-50,-120,-70,85,10,-95,20,-220,-10,-140,-130,-160
-50,-140,-90,95,20,-115,10,-230,-10,-160,-140,-170
-60,-150,-90,105,15,-120,-10,-230,-10,-150,-140,-170
-40,-150,-110,95,35,-130,-20,-250,-30,-150,-140,-180
-50,-150,-100,100,25,-125,10,-240,0,-130,-110,-150
-50,-120,-70,85,10,-95,10,-240,-20,-150,-140,-150
-30,-100,-70,65,20,-85,-10,-250,-30,-160,-150,-160
-40,-100,-60,70,10,-80,-10,-230,-30,-160,-160,-160
-30,-120,-90,75,30,-105,-10,-230,-20,-170,-170,-170
-30,-120,-90,75,30,-105,-10,-220,-20,-160,-150,-160
-40,-130,-90,85,25,-110,0,-230,-10,-140,-150,-160
-40,-150,-110,95,35,-130,-30,-250,0,-150,-150,-160
-40,-160,-120,100,40,-140,-20,-250,-10,-150,-150,-180
-50,-180,-130,115,40,-155,-30,-250,-20,-140,-150,-160
-30,-160,-130,95,50,-145,-30,-260,-20,-140,-140,-170
-20,-160,-140,90,60,-150,-30,-240,-10,-150,-150,-180
-50,-160,-110,105,30,-135,-30,-240,-20,-160,-160,-190
-40,-140,-100,90,30,-120,-30,-230,-10,-160,-160,-170
-40,-150,-110,95,35,-130,-30,-230,-20,-160,-170,-170
-40,-150,-110,95,35,-130,-40,-230,-10,-160,-170,-180
-10,-150,-140,80,65,-145,-30,-240,-10,-150,-160,-180
-20,-170,-150,95,65,-160,-40,-240,-20,-150,-160,-170
-20,-170,-150,95,65,-160,-40,-230,-10,-140,-140,-180
-30,-200,-170,115,70,-185,-40,-230,0,-130,-130,-170
-30,-230,-200,130,85,-215,-40,-230,0,-120,-130,-180
-10,-210,-200,110,95,-205,-60,-220,0,-130,-140,-180
-10,-230,-220,120,105,-225,-50,-220,10,-110,-130,-170
-20,-240,-220,130,100,-230,-70,-210,20,-120,-130,-170
0,-240,-240,120,120,-240,-60,-170,60,-100,-120,-170
-10,-270,-260,140,125,-265,-60,-170,50,-110,-140,-190
-10,-290,-280,150,135,-285,-30,-170,60,-90,-120,-180
-20,-340,-320,180,150,-330,-20,-160,70,-90,-120,-190
0,-360,-360,180,180,-360,-40,-170,50,-100,-120,-190
20,-330,-350,155,185,-340,-30,-200,30,-110,-130,-200
10,-330,-340,160,175,-335,-40,-200,40,-100,-120,-200
10,-340,-350,165,180,-345,-70,-180,40,-100,-120,-170
20,-310,-330,145,175,-320,-60,-170,40,-90,-100,-170
10,-280,-290,135,150,-285,-60,-150,50,-100,-110,-150
20,-270,-290,125,155,-280,-60,-150,50,-90,-110,-150
20,-260,-280,120,150,-270,-70,-150,60,-90,-100,-140
20,-260,-280,120,150,-270,-60,-140,90,-70,-80,-130
40,-230,-270,95,155,-250,-50,-150,100,-80,-90,-140
20,-230,-250,105,135,-240,-50,-160,100,-60,-70,-130
40,-190,-230,75,135,-210,-70,-170,100,-60,-70,-130
40,-190,-230,75,135,-210,-60,-160,100,-50,-70,-110
20,-190,-210,85,115,-200,-70,-160,110,-60,-70,-100
10,-180,-190,85,100,-185,-60,-160,80,-80,-90,-140
20,-180,-200,80,110,-190,-70,-170,70,-80,-110,-140
20,-170,-190,75,105,-180,-90,-180,60,-110,-130,-160
20,-150,-170,65,95,-160,-70,-170,70,-90,-120,-160
-10,-170,-160,90,75,-165,-50,-180,80,-80,-110,-170
-30,-160,-130,95,50,-145,-50,-180,90,-70,-90,-160
-10,-130,-120,70,55,-125,-60,-180,100,-70,-80,-130
10,-110,-120,50,65,-115,-60,-180,110,-40,-70,-120
-10,-140,-130,75,60,-135,-40,-190,100,-60,-70,-140
-40,-150,-110,95,35,-130,-40,-190,100,-70,-90,-160
-30,-160,-130,95,50,-145,-50,-200,80,-90,-100,-150
-40,-160,-120,100,40,-140,-60,-210,50,-100,-120,-160
-60,-190,-130,125,35,-160,-50,-220,40,-130,-150,-180
-50,-180,-130,115,40,-155,-60,-230,30,-120,-160,-190
-100,-220,-120,160,10,-170,-60,-240,30,-130,-160,-200
-90,-210,-120,150,15,-165,-70,-250,20,-140,-170,-190
-80,-210,-130,145,25,-170,-60,-230,60,-120,-150,-190
-70,-210,-140,140,35,-175,-70,-260,30,-130,-160,-200
-80,-200,-120,140,20,-160,-70,-260,10,-140,-160,-200
-70,-190,-120,130,25,-155,-60,-240,30,-120,-140,-200
-90,-180,-90,135,0,-135,-60,-250,20,-130,-160,-200
-60,-160,-100,110,20,-130,-80,-230,40,-120,-140,-180
-50,-160,-110,105,30,-135,-70,-220,50,-110,-150,-200
-80,-170,-90,125,5,-130,-60,-240,50,-120,-160,-220
-40,-160,-120,100,40,-140,-80,-230,50,-110,-140,-200
-60,-170,-110,115,25,-140,-70,-230,50,-110,-140,-190
-90,-200,-110,145,10,-155,-60,-240,50,-110,-140,-200
-60,-180,-120,120,30,-150,-80,-260,30,-120,-140,-220
-60,-180,-120,120,30,-150,-70,-250,40,-120,-130,-200
-70,-160,-90,115,10,-125,-60,-220,30,-120,-140,-210
-60,-190,-130,125,35,-160,-50,-210,50,-110,-130,-180
-60,-220,-160,140,50,-190,-60,-170,60,-100,-120,-160
-30,-250,-220,140,95,-235,-40,-100,130,-50,-80,-150
0,-240,-240,120,120,-240,-60,-10,210,40,-10,-130
70,-270,-340,100,205,-305,-70,100,350,170,90,-70
130,-280,-410,75,270,-345,-70,230,510,310,210,0
150,-260,-410,55,280,-335,-110,260,600,380,270,20
160,-180,-340,10,250,-260,-180,280,720,480,350,90
220,-70,-290,-75,255,-180,-210,390,959,680,520,190
240,100,-140,-170,190,-20,-190,470,1139,830,620,250
240,270,30,-255,105,150,-120,410,1219,919,690,350
250,440,190,-345,30,315,-160,120,1169,949,750,450
270,660,390,-465,-60,525,-280,-260,1099,979,820,580
320,889,570,-605,-125,730,-410,-610,1019,1029,879,720
330,1139,810,-735,-240,974,-520,-939,919,1049,939,850
280,1439,1159,-860,-440,1299,-670,-1389,650,909,860,939
220,1689,1469,-954,-625,1579,-860,-1779,380,760,750,989
150,1909,1759,-1029,-805,1834,-989,-2109,130,600,620,989
60,2259,2199,-1159,-1069,2229,-1199,-2529,-200,350,430,999
10,2449,2439,-1229,-1214,2444,-1549,-2948,-630,70,230,979
20,2439,2419,-1229,-1199,2429,-1879,-3218,-1019,-190,60,969
50,2309,2259,-1179,-1104,2284,-2049,-3278,-1219,-330,-10,959
80,2039,1959,-1059,-939,1999,-2079,-3178,-1309,-450,-100,909
50,1649,1599,-850,-775,1624,-1899,-2948,-1329,-550,-210,740
0,1159,1159,-580,-580,1159,-1699,-2708,-1339,-670,-340,520
-60,730,790,-335,-425,760,-1539,-2549,-1419,-860,-510,280
-100,340,440,-120,-270,390,-1379,-2389,-1499,-1029,-670,40
-190,-80,110,135,-150,15,-1069,-2129,-1559,-1209,-840,-230
-270,-260,10,265,-140,-125,-820,-1849,-1459,-1229,-899,-400
-290,-320,-30,305,-130,-175,-630,-1569,-1219,-1079,-830,-440
-290,-330,-40,310,-125,-185,-540,-1319,-989,-919,-740,-430
-250,-270,-20,260,-115,-145,-460,-1089,-780,-750,-600,-370
-180,-220,-40,200,-70,-130,-390,-889,-580,-620,-500,-320
-130,-200,-70,165,-30,-135,-290,-690,-400,-480,-420,-270
-100,-220,-120,160,10,-170,-200,-520,-240,-360,-330,-240
-80,-210,-130,145,25,-170,-120,-370,-110,-270,-250,-220
-30,-140,-110,85,40,-125,-120,-290,0,-190,-190,-190
0,-90,-90,45,45,-90,-110,-220,80,-110,-130,-160
0,-80,-80,40,40,-80,-90,-150,140,-60,-80,-160
0,-80,-80,40,40,-80,-50,-100,180,-20,-50,-140
-10,-80,-70,45,30,-75,-50,-60,170,0,-40,-130
-10,-90,-80,50,35,-85,-60,-40,170,-10,-40,-130
-10,-100,-90,55,40,-95,-50,-20,180,-30,-60,-130
-20,-110,-90,65,35,-100,-20,0,190,-40,-60,-150
-10,-120,-110,65,50,-115,-10,10,200,-30,-70,-160
0,-110,-110,55,55,-110,-10,10,210,-40,-60,-160
-10,-120,-110,65,50,-115,-20,10,220,-20,-70,-170
10,-110,-120,50,65,-115,10,20,240,0,-30,-160
10,-120,-130,55,70,-125,-10,30,270,20,-10,-140
-20,-150,-130,85,55,-140,10,60,280,50,20,-130
-30,-150,-120,90,45,-135,10,60,250,40,0,-140
-50,-150,-100,100,25,-125,0,90,250,30,-10,-120
-30,-140,-110,85,40,-125,10,110,280,40,0,-90
-40,-140,-100,90,30,-120,40,130,290,40,10,-90
-30,-140,-110,85,40,-125,10,120,280,20,-20,-120
-10,-100,-90,55,40,-95,20,130,310,40,10,-130
-20,-110,-90,65,35,-100,20,120,320,60,10,-110
-20,-130,-110,75,45,-120,40,120,320,70,20,-110
0,-120,-120,60,60,-120,20,120,340,90,40,-90
-10,-140,-130,75,60,-135,20,120,320,90,50,-90
-20,-140,-120,80,50,-130,20,150,330,110,50,-90
-20,-120,-100,70,40,-110,20,170,320,90,40,-90
-30,-120,-90,75,30,-105,20,190,340,100,50,-70
-30,-110,-80,70,25,-95,30,200,320,90,50,-70
-30,-110,-80,70,25,-95,30,200,330,90,30,-90
-30,-100,-70,65,20,-85,30,200,340,90,40,-90
-10,-90,-80,50,35,-85,30,190,360,110,50,-80
-10,-110,-100,60,45,-105,40,200,370,120,60,-70
10,-100,-110,45,60,-105,40,190,390,130,70,-60
0,-100,-100,50,50,-100,40,200,390,140,90,-70
0,-110,-110,55,55,-110,30,200,390,160,90,-50
20,-90,-110,35,65,-100,40,230,390,150,90,-40
0,-80,-80,40,40,-80,30,240,380,140,80,-50
-10,-70,-60,40,25,-65,50,260,400,140,90,-50
-10,-70,-60,40,25,-65,30,260,410,140,70,-60
-40,-100,-60,70,10,-80,50,250,410,130,60,-80
-20,-90,-70,55,25,-80,40,240,430,160,80,-80
0,-80,-80,40,40,-80,50,250,450,170,100,-70
0,-110,-110,55,55,-110,30,240,430,170,90,-80
-10,-100,-90,55,40,-95,50,250,340,190,110,-80
10,-110,-120,50,65,-115,40,260,210,210,130,-40
30,-90,-120,30,75,-105,40,290,130,200,140,-30
40,-70,-110,15,75,-90,40,310,90,200,140,-30
10,-70,-80,30,45,-75,40,330,70,190,130,-40
0,-80,-80,40,40,-80,50,330,40,190,130,-40
0,-100,-100,50,50,-100,60,340,40,190,130,-30
10,-80,-90,35,50,-85,50,320,30,200,130,-40
40,-70,-110,15,75,-90,60,330,40,220,150,-30
40,-90,-130,25,85,-110,30,320,20,220,160,-30
40,-70,-110,15,75,-90,40,330,20,240,180,-30
60,-60,-120,-0,90,-90,50,370,20,260,200,-10
30,-70,-100,20,65,-85,50,380,10,240,190,0
40,-50,-90,5,65,-70,60,410,20,250,210,10
30,-30,-60,-0,45,-45,80,440,50,260,220,10
40,-30,-70,-5,55,-50,70,440,40,250,210,10
50,-30,-80,-10,65,-55,80,440,60,260,210,10
60,-30,-90,-15,75,-60,80,440,70,290,230,0
70,-30,-100,-20,85,-65,70,460,100,310,260,20
60,-50,-110,-5,85,-80,80,470,90,320,260,20
40,-60,-100,10,70,-80,80,470,90,330,280,20
60,-40,-100,-10,80,-70,70,490,100,350,290,70
70,-40,-110,-15,90,-75,60,510,110,350,300,80
80,-10,-90,-35,85,-50,70,540,120,370,320,90
80,-10,-90,-35,85,-50,80,570,170,390,340,120
80,-20,-100,-30,90,-60,80,590,180,420,350,130
80,-20,-100,-30,90,-60,90,600,200,420,350,120
120,20,-100,-70,110,-40,80,610,230,440,360,130
90,-10,-100,-40,95,-55,80,610,240,460,380,150
110,10,-100,-60,105,-45,80,630,260,490,400,150
120,20,-100,-70,110,-40,70,660,280,510,440,170
130,40,-90,-85,110,-25,70,690,310,540,460,190
150,60,-90,-105,120,-15,80,730,350,570,490,230
120,50,-70,-85,95,-10,90,740,350,570,490,230
120,70,-50,-95,85,10,80,760,380,590,490,220
160,80,-80,-120,120,0,90,810,410,620,520,250
190,90,-100,-140,145,-5,100,830,460,660,530,270
210,110,-100,-160,155,5,110,830,500,690,570,290
210,110,-100,-160,155,5,110,860,540,720,610,310
220,120,-100,-170,160,10,100,889,570,770,650,350
220,120,-100,-170,160,10,100,919,610,800,690,380
220,120,-100,-170,160,10,100,939,620,820,700,400
220,140,-80,-180,150,30,90,969,640,840,720,420
220,170,-50,-195,135,60,90,999,670,869,740,440
240,190,-50,-215,145,70,80,1019,700,889,750,460
250,200,-50,-225,150,75,90,1059,750,909,780,490
260,210,-50,-235,155,80,80,1069,770,929,790,490
270,250,-20,-260,145,115,80,1069,800,959,830,500
280,230,-50,-255,165,90,90,1089,830,989,860,520
270,200,-70,-235,170,65,70,1089,820,999,860,520
280,240,-40,-260,160,100,70,1109,830,1009,889,530
300,270,-30,-285,165,120,80,1139,869,1039,909,570
300,270,-30,-285,165,120,70,1149,869,1039,919,600
290,290,0,-290,145,145,80,1159,879,1059,919,590
270,290,20,-280,125,155,80,1159,879,1049,899,560
270,300,30,-285,120,165,80,1179,879,1039,909,590
280,320,40,-300,120,180,80,1189,889,1069,929,590
280,320,40,-300,120,180,80,1169,889,1059,919,580
310,340,30,-325,140,185,80,1169,899,1069,949,610
310,330,20,-320,145,175,70,1169,879,1069,939,610
310,340,30,-325,140,185,60,1159,869,1069,929,600
310,370,60,-340,125,215,60,1149,850,1059,929,610
310,360,50,-335,130,205,50,1129,820,1039,909,620
280,370,90,-325,95,230,70,1129,810,1019,909,620
270,370,100,-320,85,235,50,1109,790,989,879,600
250,360,110,-305,70,235,60,1079,750,949,850,590
230,350,120,-290,55,235,60,1049,710,899,810,560
220,360,140,-290,40,250,50,989,660,869,770,540
220,340,120,-280,50,230,40,949,620,840,740,480
220,330,110,-275,55,220,50,929,570,790,710,450
190,310,120,-250,35,215,40,869,490,730,670,410
200,320,120,-260,40,220,30,830,450,680,630,410
180,310,130,-245,25,220,50,810,390,630,590,370
140,280,140,-210,0,210,40,750,320,560,520,320
140,290,150,-215,-5,220,40,720,270,500,470,300
130,260,130,-195,0,195,40,680,200,440,420,270
110,220,110,-165,0,165,50,620,140,390,370,230
90,210,120,-150,-15,165,70,580,100,350,340,190
80,190,110,-135,-15,150,50,520,30,310,300,150
50,180,130,-115,-40,155,50,490,-10,270,270,130
50,170,120,-110,-35,145,40,450,-60,230,230,110
50,150,100,-100,-25,125,40,410,-110,180,190,80
60,140,80,-100,-10,110,40,370,-160,140,160,40
50,100,50,-75,0,75,20,330,-220,90,110,20
20,80,60,-50,-20,70,10,310,-250,40,70,0
10,80,70,-45,-30,75,20,290,-280,20,40,-10
-10,50,60,-20,-35,55,20,260,-300,-10,30,-30
-10,40,50,-15,-30,45,10,240,-330,-30,0,-60
-10,30,40,-10,-25,35,0,220,-340,-30,20,-60
-40,-10,30,25,-35,10,-10,200,-370,-50,10,-70
-40,-40,0,40,-20,-20,-10,180,-400,-70,-30,-90
-10,-40,-30,25,10,-35,-20,150,-430,-110,-40,-110
0,-40,-40,20,20,-40,-10,150,-450,-120,-60,-100
-20,-40,-20,30,0,-30,-10,150,-480,-140,-70,-100
-70,-70,0,70,-35,-35,-10,140,-480,-170,-80,-100
-50,-80,-30,65,-10,-55,-10,130,-490,-170,-100,-110
-30,-80,-50,55,10,-65,-10,110,-490,-170,-110,-120
-40,-70,-30,55,-5,-50,-20,100,-490,-160,-110,-110
-20,-90,-70,55,25,-80,-30,70,-520,-190,-130,-140
-30,-110,-80,70,25,-95,-40,50,-550,-210,-140,-170
-30,-120,-90,75,30,-105,-50,30,-560,-220,-150,-180
-20,-110,-90,65,35,-100,-30,50,-550,-210,-130,-140
-20,-130,-110,75,45,-120,-60,30,-570,-230,-150,-180
-30,-140,-110,85,40,-125,-60,30,-590,-260,-180,-200
-10,-120,-110,65,50,-115,-50,30,-570,-250,-170,-210
-20,-120,-100,70,40,-110,-50,40,-570,-250,-160,-180
-20,-130,-110,75,45,-120,-50,40,-550,-230,-160,-170
-50,-130,-80,90,15,-105,-20,40,-540,-220,-160,-180
-80,-120,-40,100,-20,-80,-40,20,-550,-230,-150,-180
-110,-160,-50,135,-30,-105,-20,40,-540,-210,-120,-160
-100,-180,-80,140,-10,-130,-40,10,-560,-220,-150,-190
-90,-170,-80,130,-5,-125,-40,30,-550,-210,-130,-170
-90,-160,-70,125,-10,-115,-40,30,-560,-220,-130,-170
-100,-170,-70,135,-15,-120,-50,30,-580,-240,-150,-160
-90,-160,-70,125,-10,-115,-40,30,-570,-240,-150,-160
-80,-170,-90,125,5,-130,-30,40,-560,-240,-150,-170
-80,-170,-90,125,5,-130,-30,20,-550,-240,-160,-170
-80,-160,-80,120,0,-120,-40,10,-570,-260,-170,-180
-80,-180,-100,130,10,-140,-50,-10,-580,-260,-170,-200
-70,-190,-120,130,25,-155,-40,-10,-580,-250,-170,-210
-50,-160,-110,105,30,-135,-50,0,-560,-230,-160,-220
-50,-160,-110,105,30,-135,-60,-10,-580,-250,-170,-200
-50,-190,-140,120,45,-165,-70,0,-580,-250,-160,-190
-90,-200,-110,145,10,-155,-60,10,-580,-260,-170,-190
-90,-180,-90,135,0,-135,-60,0,-580,-280,-190,-190
-80,-170,-90,125,5,-130,-50,0,-590,-290,-190,-200
-90,-170,-80,130,-5,-125,-50,0,-580,-270,-210,-200
-80,-160,-80,120,0,-120,-60,-20,-570,-270,-210,-200
-80,-170,-90,125,5,-130,-80,-30,-570,-280,-210,-220
-50,-160,-110,105,30,-135,-60,-10,-560,-260,-190,-200
-40,-150,-110,95,35,-130,-60,-10,-550,-240,-180,-200
-50,-140,-90,95,20,-115,-70,-10,-580,-250,-180,-200
-70,-160,-90,115,10,-125,-70,20,-570,-250,-180,-200
-60,-140,-80,100,10,-110,-80,30,-570,-250,-180,-200
-70,-140,-70,105,0,-105,-100,10,-570,-260,-200,-220
-80,-130,-50,105,-15,-90,-70,30,-570,-260,-200,-230
-80,-130,-50,105,-15,-90,-60,20,-560,-270,-210,-220
-80,-170,-90,125,5,-130,-60,10,-550,-260,-200,-220
-60,-160,-100,110,20,-130,-70,0,-530,-250,-180,-220
-90,-170,-80,130,-5,-125,-60,10,-530,-240,-170,-230
-90,-180,-90,135,0,-135,-50,20,-520,-220,-160,-220
-60,-150,-90,105,15,-120,-60,10,-530,-240,-170,-220
-30,-140,-110,85,40,-125,-80,20,-530,-250,-160,-230
-40,-130,-90,85,25,-110,-80,40,-510,-240,-160,-200
-60,-140,-80,100,10,-110,-70,40,-520,-250,-170,-200
-60,-130,-70,95,5,-100,-70,40,-520,-260,-170,-220
-60,-150,-90,105,15,-120,-70,40,-510,-250,-170,-220
-60,-170,-110,115,25,-140,-70,30,-500,-250,-180,-240
-50,-160,-110,105,30,-135,-70,40,-490,-240,-170,-240
-40,-140,-100,90,30,-120,-80,30,-500,-240,-170,-240
-30,-140,-110,85,40,-125,-80,40,-490,-220,-150,-210
-10,-110,-100,60,45,-105,-110,50,-490,-220,-150,-220
-30,-140,-110,85,40,-125,-100,60,-490,-220,-140,-220
-40,-140,-100,90,30,-120,-80,60,-490,-220,-150,-220
-30,-100,-70,65,20,-85,-80,80,-460,-200,-150,-220
-50,-120,-70,85,10,-95,-80,70,-480,-230,-160,-230
-30,-120,-90,75,30,-105,-80,60,-480,-220,-160,-230
-40,-120,-80,80,20,-100,-90,50,-460,-210,-160,-230
-70,-140,-70,105,0,-105,-70,60,-450,-210,-160,-260
-40,-140,-100,90,30,-120,-70,40,-460,-210,-140,-250
-10,-140,-130,75,60,-135,-90,40,-470,-210,-140,-230
-30,-130,-100,80,35,-115,-80,70,-450,-200,-130,-210
-50,-120,-70,85,10,-95,-80,80,-450,-200,-120,-210
-50,-130,-80,90,15,-105,-90,70,-460,-200,-140,-230
-50,-130,-80,90,15,-105,-80,80,-450,-210,-150,-240
-60,-130,-70,95,5,-100,-60,90,-440,-220,-140,-210
-70,-120,-50,95,-10,-85,-70,80,-440,-230,-140,-210
-50,-100,-50,75,0,-75,-70,70,-440,-220,-150,-220
-40,-110,-70,75,15,-90,-90,70,-430,-220,-140,-210
-50,-140,-90,95,20,-115,-90,70,-430,-210,-130,-230
-40,-140,-100,90,30,-120,-100,50,-460,-210,-140,-250
-60,-140,-80,100,10,-110,-90,70,-440,-200,-120,-200
-50,-130,-80,90,15,-105,-110,70,-460,-220,-130,-220
-30,-90,-60,60,15,-75,-120,70,-450,-210,-130,-230
-40,-80,-40,60,0,-60,-110,80,-440,-210,-130,-240
-40,-100,-60,70,10,-80,-70,80,-430,-210,-130,-230
-50,-120,-70,85,10,-95,-70,70,-430,-210,-120,-200
-50,-120,-70,85,10,-95,-80,60,-420,-210,-140,-210
-20,-100,-80,60,30,-90,-90,50,-430,-210,-140,-210
-60,-130,-70,95,5,-100,-80,60,-430,-200,-130,-220
-50,-140,-90,95,20,-115,-90,50,-450,-200,-140,-230
-50,-130,-80,90,15,-105,-100,40,-460,-220,-150,-250
-50,-140,-90,95,20,-115,-100,60,-450,-210,-140,-240
-30,-110,-80,70,25,-95,-100,60,-440,-200,-130,-220
-30,-90,-60,60,15,-75,-100,60,-450,-220,-140,-210
-20,-90,-70,55,25,-80,-100,70,-450,-240,-140,-210
-20,-100,-80,60,30,-90,-90,60,-440,-230,-140,-230
-40,-110,-70,75,15,-90,-110,50,-430,-230,-150,-230
-10,-110,-100,60,45,-105,-110,50,-440,-230,-140,-230
0,-120,-120,60,60,-120,-80,40,-450,-230,-130,-230
-30,-110,-80,70,25,-95,-80,60,-430,-220,-130,-230
-40,-110,-70,75,15,-90,-100,50,-450,-230,-150,-250
-60,-130,-70,95,5,-100,-110,50,-470,-260,-180,-300
-50,-150,-100,100,25,-125,-90,50,-460,-250,-170,-270
-30,-120,-90,75,30,-105,-90,50,-450,-240,-160,-210
-30,-100,-70,65,20,-85,-90,50,-450,-250,-180,-260
-20,-90,-70,55,25,-80,-80,60,-430,-240,-170,-270
-70,-140,-70,105,0,-105,-80,40,-440,-250,-180,-240
-50,-150,-100,100,25,-125,-80,40,-450,-250,-160,-220
-20,-140,-120,80,50,-130,-90,40,-440,-240,-150,-250
-30,-150,-120,90,45,-135,-90,20,-450,-240,-160,-250
-30,-140,-110,85,40,-125,-90,30,-470,-250,-170,-270
-40,-140,-100,90,30,-120,-90,30,-470,-250,-170,-260
-60,-160,-100,110,20,-130,-80,40,-450,-240,-150,-230
-30,-130,-100,80,35,-115,-90,40,-460,-250,-170,-240
-30,-120,-90,75,30,-105,-100,40,-450,-260,-170,-260
-80,-160,-80,120,0,-120,-90,30,-450,-250,-170,-250
-60,-170,-110,115,25,-140,-80,40,-450,-250,-160,-260
-40,-160,-120,100,40,-140,-90,30,-460,-250,-170,-270
-50,-170,-120,110,35,-145,-100,10,-460,-270,-170,-270
-30,-150,-120,90,45,-135,-90,10,-460,-250,-160,-270
-50,-150,-100,100,25,-125,-100,20,-460,-250,-160,-260
-30,-140,-110,85,40,-125,-90,20,-470,-260,-160,-260
-30,-140,-110,85,40,-125,-80,10,-480,-280,-170,-260
-30,-150,-120,90,45,-135,-110,10,-480,-290,-180,-250
-30,-130,-100,80,35,-115,-100,10,-470,-280,-180,-250
-30,-130,-100,80,35,-115,-100,10,-460,-270,-170,-250
-20,-130,-110,75,45,-120,-100,10,-450,-270,-180,-260
0,-100,-100,50,50,-100,-90,20,-460,-270,-170,-270
0,-100,-100,50,50,-100,-130,0,-460,-270,-180,-270
-30,-140,-110,85,40,-125,-100,10,-440,-240,-160,-270
-60,-160,-100,110,20,-130,-70,10,-460,-260,-180,-280
-80,-160,-80,120,0,-120,-80,20,-470,-260,-170,-260
-60,-130,-70,95,5,-100,-80,10,-470,-270,-180,-260
-40,-160,-120,100,40,-140,-80,30,-460,-250,-180,-250
-30,-140,-110,85,40,-125,-90,20,-460,-270,-180,-260
-20,-160,-140,90,60,-150,-90,10,-460,-270,-180,-250
-40,-180,-140,110,50,-160,-100,0,-450,-270,-190,-260
-50,-160,-110,105,30,-135,-90,10,-450,-270,-180,-260
-50,-160,-110,105,30,-135,-90,0,-450,-270,-190,-290
-40,-160,-120,100,40,-140,-70,-10,-450,-260,-170,-260
-30,-120,-90,75,30,-105,-70,20,-440,-250,-160,-230
-40,-120,-80,80,20,-100,-80,10,-450,-270,-190,-290
-80,-140,-60,110,-10,-100,-70,-10,-460,-280,-210,-280
-40,-130,-90,85,25,-110,-80,10,-460,-270,-190,-230
-40,-140,-100,90,30,-120,-70,20,-450,-270,-170,-240
-10,-130,-120,70,55,-125,-80,10,-450,-270,-170,-210
-30,-130,-100,80,35,-115,-80,10,-430,-260,-160,-200
-60,-150,-90,105,15,-120,-100,-10,-460,-270,-180,-210
-70,-170,-100,120,15,-135,-60,-10,-440,-270,-170,-240
-60,-180,-120,120,30,-150,-60,-10,-450,-260,-180,-240
-70,-170,-100,120,15,-135,-70,10,-440,-250,-170,-210
-60,-170,-110,115,25,-140,-70,20,-440,-250,-160,-230
-60,-160,-100,110,20,-130,-80,10,-430,-250,-160,-230
-20,-140,-120,80,50,-130,-80,20,-430,-260,-160,-210
-20,-150,-130,85,55,-140,-90,10,-440,-270,-170,-210
-30,-160,-130,95,50,-145,-80,10,-440,-260,-170,-210
-50,-170,-120,110,35,-145,-70,-10,-430,-260,-180,-230
-70,-180,-110,125,20,-145,-70,-10,-440,-270,-180,-240
-40,-180,-140,110,50,-160,-70,-10,-420,-260,-180,-250
-40,-180,-140,110,50,-160,-60,-10,-430,-250,-170,-240
-50,-180,-130,115,40,-155,-80,-30,-460,-280,-190,-240
-50,-170,-120,110,35,-145,-80,0,-440,-260,-170,-210
-60,-150,-90,105,15,-120,-80,-10,-440,-270,-190,-210
-60,-150,-90,105,15,-120,-70,0,-440,-270,-190,-210
-40,-140,-100,90,30,-120,-80,-10,-430,-270,-180,-210
-50,-150,-100,100,25,-125,-70,0,-420,-260,-190,-220
-10,-120,-110,65,50,-115,-50,0,-410,-250,-170,-220
-10,-110,-100,60,45,-105,-80,-10,-430,-250,-180,-220
-60,-150,-90,105,15,-120,-70,-30,-430,-250,-180,-240
-60,-180,-120,120,30,-150,-40,-10,-420,-240,-170,-240
-70,-170,-100,120,15,-135,-60,-10,-430,-250,-170,-230
-50,-160,-110,105,30,-135,-70,-10,-440,-260,-180,-230
-50,-170,-120,110,35,-145,-70,-20,-430,-260,-180,-240
-90,-170,-80,130,-5,-125,-60,10,-410,-240,-170,-230
-50,-140,-90,95,20,-115,-60,-20,-420,-260,-190,-240
-30,-160,-130,95,50,-145,-70,-30,-420,-250,-190,-230
-40,-170,-130,105,45,-150,-60,-20,-400,-240,-180,-250
-30,-130,-100,80,35,-115,-60,-20,-410,-250,-180,-270
-30,-150,-120,90,45,-135,-50,-30,-410,-260,-180,-290
-40,-180,-140,110,50,-160,-50,-30,-420,-250,-180,-260
-50,-170,-120,110,35,-145,-60,-30,-430,-260,-160,-240
-40,-170,-130,105,45,-150,-60,-20,-440,-260,-180,-260
-30,-170,-140,100,55,-155,-60,-10,-420,-260,-170,-240
-50,-170,-120,110,35,-145,-60,-20,-430,-270,-190,-250
-60,-180,-120,120,30,-150,-80,-40,-440,-290,-210,-260
-60,-180,-120,120,30,-150,-60,-30,-420,-270,-190,-240
-40,-170,-130,105,45,-150,-70,-30,-410,-260,-180,-250
-20,-160,-140,90,60,-150,-80,-40,-410,-250,-170,-240
-20,-150,-130,85,55,-140,-60,-30,-400,-240,-160,-240
-20,-150,-130,85,55,-140,-80,-30,-410,-240,-190,-280
-10,-160,-150,85,70,-155,-80,-40,-410,-240,-180,-260
-10,-150,-140,80,65,-145,-80,-40,-420,-250,-170,-210
-40,-150,-110,95,35,-130,-80,-40,-420,-260,-180,-220
-40,-150,-110,95,35,-130,-60,-30,-420,-250,-180,-250
-60,-170,-110,115,25,-140,-50,-40,-420,-270,-200,-270
-60,-190,-130,125,35,-160,-50,-40,-400,-250,-180,-220
-50,-170,-120,110,35,-145,-80,-50,-410,-250,-200,-240
-30,-160,-130,95,50,-145,-80,-50,-420,-260,-200,-260
-30,-160,-130,95,50,-145,-60,-50,-410,-250,-180,-250
-30,-150,-120,90,45,-135,-60,-50,-390,-230,-170,-230
-40,-170,-130,105,45,-150,-60,-50,-400,-240,-180,-240
-40,-170,-130,105,45,-150,-50,-40,-410,-250,-170,-230
-40,-160,-120,100,40,-140,-60,-50,-410,-250,-180,-230
-30,-160,-130,95,50,-145,-80,-50,-410,-250,-190,-240
-40,-170,-130,105,45,-150,-60,-40,-410,-250,-180,-220
-50,-180,-130,115,40,-155,-60,-70,-420,-260,-190,-240
-40,-170,-130,105,45,-150,-60,-60,-400,-240,-170,-230
-30,-180,-150,105,60,-165,-70,-60,-400,-240,-180,-230
-30,-170,-140,100,55,-155,-50,-80,-410,-240,-170,-230
-20,-170,-150,95,65,-160,-40,-70,-390,-240,-160,-220
-40,-180,-140,110,50,-160,-40,-70,-400,-240,-160,-220
-40,-150,-110,95,35,-130,-40,-70,-400,-240,-160,-210
-30,-150,-120,90,45,-135,-30,-50,-380,-240,-160,-210
-30,-150,-120,90,45,-135,-40,-50,-380,-230,-160,-200
-30,-140,-110,85,40,-125,-40,-60,-380,-240,-170,-200
-60,-180,-120,120,30,-150,-30,-50,-370,-240,-160,-200
-70,-190,-120,130,25,-155,-40,-60,-370,-240,-160,-200
-50,-170,-120,110,35,-145,-50,-70,-390,-250,-180,-230
-60,-160,-100,110,20,-130,-50,-80,-400,-260,-190,-250
-50,-180,-130,115,40,-155,-60,-90,-400,-260,-180,-250
-50,-140,-90,95,20,-115,-60,-80,-390,-240,-180,-220
-60,-160,-100,110,20,-130,-50,-70,-390,-250,-170,-230
-50,-150,-100,100,25,-125,-50,-80,-380,-250,-180,-240
-40,-150,-110,95,35,-130,-50,-70,-370,-250,-180,-230
-60,-150,-90,105,15,-120,-40,-70,-380,-260,-180,-230
-40,-160,-120,100,40,-140,-40,-80,-380,-260,-180,-240
-30,-160,-130,95,50,-145,-50,-100,-370,-260,-190,-220
-20,-140,-120,80,50,-130,-50,-100,-370,-240,-170,-210
-50,-140,-90,95,20,-115,-30,-80,-360,-230,-150,-210
-70,-160,-90,115,10,-125,-50,-90,-370,-250,-170,-240
-60,-160,-100,110,20,-130,-40,-80,-360,-220,-160,-230
-60,-170,-110,115,25,-140,-50,-70,-360,-220,-150,-210
-60,-160,-100,110,20,-130,-30,-70,-360,-230,-150,-200
-30,-150,-120,90,45,-135,-40,-80,-370,-240,-170,-210
-30,-160,-130,95,50,-145,-50,-90,-370,-250,-170,-220
-30,-150,-120,90,45,-135,-50,-100,-370,-250,-180,-230
-10,-140,-130,75,60,-135,-50,-100,-360,-240,-180,-230
-30,-160,-130,95,50,-145,-40,-90,-360,-230,-170,-210
-30,-160,-130,95,50,-145,-40,-80,-350,-220,-160,-200
-30,-160,-130,95,50,-145,-30,-90,-360,-240,-170,-220
-30,-150,-120,90,45,-135,-40,-100,-360,-240,-160,-220
-30,-150,-120,90,45,-135,-30,-80,-350,-240,-160,-220
-40,-160,-120,100,40,-140,-20,-90,-350,-250,-170,-230
-40,-150,-110,95,35,-130,-10,-90,-340,-240,-170,-240
-20,-150,-130,85,55,-140,-30,-90,-340,-250,-170,-210
-30,-170,-140,100,55,-155,-20,-80,-330,-230,-150,-210
-20,-160,-140,90,60,-150,-30,-90,-350,-230,-160,-210
-30,-150,-120,90,45,-135,-30,-100,-350,-240,-160,-220
-40,-150,-110,95,35,-130,-20,-90,-340,-230,-160,-230
-30,-160,-130,95,50,-145,-40,-100,-340,-230,-170,-200
-30,-170,-140,100,55,-155,-40,-110,-350,-240,-180,-210
-30,-140,-110,85,40,-125,-50,-100,-350,-240,-170,-210
-40,-150,-110,95,35,-130,-30,-100,-350,-240,-180,-210
-60,-170,-110,115,25,-140,-40,-100,-350,-250,-200,-210
-40,-160,-120,100,40,-140,-40,-100,-340,-250,-190,-220
-50,-160,-110,105,30,-135,-30,-100,-340,-250,-200,-220
-40,-140,-100,90,30,-120,-40,-110,-340,-250,-210,-220
-40,-140,-100,90,30,-120,-30,-100,-320,-240,-190,-200
-30,-140,-110,85,40,-125,-20,-100,-320,-230,-180,-200
-10,-130,-120,70,55,-125,-30,-120,-330,-230,-180,-200
-40,-150,-110,95,35,-130,-20,-110,-340,-240,-190,-200
-50,-150,-100,100,25,-125,-10,-110,-330,-240,-180,-210
-30,-150,-120,90,45,-135,-10,-110,-330,-240,-180,-180
-40,-160,-120,100,40,-140,-10,-110,-320,-240,-180,-180
-40,-160,-120,100,40,-140,-10,-120,-320,-230,-190,-200
-30,-150,-120,90,45,-135,-10,-110,-320,-240,-190,-200
-20,-180,-160,100,70,-170,0,-110,-310,-230,-180,-180
-10,-150,-140,80,65,-145,-10,-120,-310,-240,-180,-190
-10,-140,-130,75,60,-135,-10,-120,-310,-230,-180,-190
-20,-150,-130,85,55,-140,0,-110,-300,-220,-170,-190
0,-120,-120,60,60,-120,0,-120,-300,-210,-170,-170
-10,-150,-140,80,65,-145,0,-120,-290,-230,-170,-170
-20,-140,-120,80,50,-130,0,-120,-300,-230,-190,-190
-30,-140,-110,85,40,-125,10,-110,-300,-220,-180,-180
-50,-140,-90,95,20,-115,10,-120,-300,-230,-190,-190
-30,-140,-110,85,40,-125,10,-130,-290,-230,-180,-180
-30,-120,-90,75,30,-105,0,-130,-290,-220,-190,-170
-20,-110,-90,65,35,-100,10,-130,-290,-220,-180,-160
-10,-80,-70,45,30,-75,10,-120,-280,-210,-170,-170
-20,-100,-80,60,30,-90,20,-120,-270,-210,-160,-160
-30,-90,-60,60,15,-75,30,-110,-260,-200,-160,-140
-20,-60,-40,40,10,-50,30,-120,-260,-200,-160,-140
-20,-60,-40,40,10,-50,20,-120,-260,-210,-170,-150
0,-40,-40,20,20,-40,30,-110,-260,-220,-170,-140
-10,-60,-50,35,20,-55,30,-110,-250,-200,-170,-140
10,-60,-70,25,40,-65,10,-100,-230,-200,-150,-140
20,-70,-90,25,55,-80,20,-70,-210,-180,-150,-120
10,-110,-120,50,65,-115,30,-60,-200,-180,-130,-110
20,-110,-130,45,75,-120,10,-60,-200,-170,-130,-120
50,-110,-160,30,105,-135,0,-40,-180,-140,-100,-110
20,-130,-150,55,85,-140,10,-40,-180,-140,-100,-80
40,-120,-160,40,100,-140,10,-30,-170,-130,-90,-80
50,-140,-190,45,120,-165,-10,-50,-190,-150,-120,-100
30,-180,-210,75,120,-195,-20,-60,-200,-160,-120,-90
20,-210,-230,95,125,-220,-40,-110,-230,-190,-150,-100
10,-200,-210,95,110,-205,-40,-140,-250,-220,-170,-120
30,-170,-200,70,115,-185,-30,-120,-220,-190,-150,-90
40,-160,-200,60,120,-180,-20,-110,-220,-170,-120,-80
40,-170,-210,65,125,-190,-30,-130,-230,-180,-130,-90
40,-160,-200,60,120,-180,-20,-130,-220,-180,-130,-90
50,-170,-220,60,135,-195,-30,-130,-230,-170,-130,-80
60,-130,-190,35,125,-160,-30,-130,-230,-160,-130,-60
60,-120,-180,30,120,-150,-20,-120,-220,-160,-120,-60
50,-140,-190,45,120,-165,-20,-120,-220,-160,-120,-70
50,-130,-180,40,115,-155,0,-90,-200,-150,-110,-50
60,-120,-180,30,120,-150,10,-100,-180,-140,-90,-40
50,-130,-180,40,115,-155,0,-110,-190,-150,-100,-30
50,-130,-180,40,115,-155,0,-130,-200,-150,-100,-50
60,-130,-190,35,125,-160,-10,-140,-210,-160,-110,-60
50,-130,-180,40,115,-155,-10,-130,-200,-150,-100,-50
60,-110,-170,25,115,-140,-10,-140,-200,-150,-110,-60
30,-110,-140,40,85,-125,10,-150,-200,-140,-110,-60
40,-70,-110,15,75,-90,30,-130,-180,-140,-100,-30
20,-70,-90,25,55,-80,30,-140,-190,-150,-110,-40
-10,-90,-80,50,35,-85,30,-150,-200,-170,-130,-50
-10,-90,-80,50,35,-85,40,-140,-200,-170,-130,-70
-30,-120,-90,75,30,-105,50,-150,-200,-180,-130,-60
-40,-150,-110,95,35,-130,40,-180,-230,-200,-160,-80
-40,-160,-120,100,40,-140,20,-210,-250,-230,-180,-110
-50,-190,-140,120,45,-165,10,-220,-250,-240,-180,-80
-40,-170,-130,105,45,-150,20,-220,-250,-230,-180,-70
-40,-170,-130,105,45,-150,30,-220,-260,-240,-190,-100
-50,-160,-110,105,30,-135,20,-210,-270,-240,-190,-90
-30,-150,-120,90,45,-135,30,-220,-260,-230,-190,-80
-40,-160,-120,100,40,-140,10,-230,-270,-240,-190,-80
-30,-150,-120,90,45,-135,30,-220,-250,-240,-180,-60
-30,-120,-90,75,30,-105,30,-210,-240,-230,-180,-70
-30,-120,-90,75,30,-105,20,-220,-240,-220,-180,-70
-30,-130,-100,80,35,-115,30,-240,-250,-240,-190,-100
-50,-150,-100,100,25,-125,30,-240,-260,-250,-200,-110
-40,-140,-100,90,30,-120,30,-210,-240,-220,-170,-70
-30,-110,-80,70,25,-95,30,-210,-240,-230,-180,-100
-30,-110,-80,70,25,-95,10,-230,-250,-240,-200,-100
-30,-120,-90,75,30,-105,20,-220,-240,-230,-190,-70
-40,-140,-100,90,30,-120,20,-220,-240,-230,-180,-60
-40,-140,-100,90,30,-120,30,-200,-230,-230,-190,-80
-20,-120,-100,70,40,-110,40,-180,-220,-220,-170,-90
-20,-170,-150,95,65,-160,40,-150,-190,-200,-150,-80
20,-180,-200,80,110,-190,30,-90,-130,-150,-110,-60
60,-200,-260,70,160,-230,40,0,-30,-60,-30,-20
130,-220,-350,45,240,-285,30,140,120,80,100,50
170,-220,-390,25,280,-305,0,240,250,200,190,80
200,-180,-380,-10,290,-280,-70,230,330,260,240,140
240,-80,-320,-80,280,-200,-130,260,470,380,330,210
310,60,-250,-185,280,-95,-140,400,720,580,500,330
330,240,-90,-285,210,75,-100,460,909,740,610,420
350,420,70,-385,140,245,-60,310,969,830,690,510
350,600,250,-475,50,425,-100,-30,939,899,770,620
330,790,460,-560,-65,625,-200,-420,840,939,830,750
390,1029,640,-710,-125,835,-310,-740,810,1019,949,919
390,1319,929,-855,-270,1124,-410,-1119,650,1009,979,1069
310,1599,1289,-954,-490,1444,-560,-1529,380,860,889,1159
250,1809,1559,-1029,-655,1684,-680,-1829,170,730,810,1189
140,2069,1929,-1104,-894,1999,-780,-2199,-80,560,660,1219
70,2349,2279,-1209,-1104,2314,-1009,-2599,-420,330,480,1219
70,2439,2369,-1254,-1149,2404,-1339,-2958,-810,80,310,1219
80,2349,2269,-1214,-1094,2309,-1659,-3178,-1129,-130,190,1219
130,2169,2039,-1149,-954,2104,-1849,-3198,-1269,-260,110,1179
150,1869,1719,-1009,-785,1794,-1839,-3058,-1359,-390,0,1049
100,1429,1329,-765,-615,1379,-1659,-2808,-1379,-500,-110,860
40,1009,969,-525,-465,989,-1459,-2618,-1459,-680,-300,590
-30,610,640,-290,-335,625,-1339,-2469,-1569,-899,-510,340
-70,240,310,-85,-190,275,-1179,-2309,-1699,-1129,-730,40
-180,-110,70,145,-125,-20,-879,-2059,-1749,-1329,-889,-180
-220,-210,10,215,-115,-100,-640,-1779,-1609,-1299,-919,-300
-200,-220,-20,210,-90,-120,-510,-1539,-1359,-1129,-820,-330
-210,-230,-20,220,-95,-125,-430,-1319,-1149,-959,-710,-310
-210,-210,0,210,-105,-105,-360,-1119,-939,-830,-620,-310
-170,-170,0,170,-85,-85,-290,-919,-780,-700,-510,-220
-140,-180,-40,160,-50,-110,-200,-740,-640,-570,-410,-160
-120,-190,-70,155,-25,-130,-100,-560,-480,-460,-320,-130
-90,-160,-70,125,-10,-115,-30,-430,-350,-380,-250,-70
-40,-90,-50,65,5,-70,-30,-340,-290,-340,-240,-90
-20,-50,-30,35,5,-40,20,-240,-180,-240,-160,-50
10,-20,-30,5,20,-25,30,-180,-100,-180,-120,-30
-10,-40,-30,25,10,-35,50,-120,-70,-160,-100,-30
10,-30,-40,10,25,-35,60,-90,-70,-150,-90,-40
-10,-70,-60,40,25,-65,70,-70,-60,-150,-80,-40
-30,-80,-50,55,10,-65,80,-50,-70,-140,-80,-60
-30,-70,-40,50,5,-55,90,-50,-70,-170,-100,-50
-30,-70,-40,50,5,-55,80,-30,-50,-160,-90,-30
-20,-70,-50,45,15,-60,100,-10,-30,-170,-90,-30
-10,-70,-60,40,25,-65,100,0,-10,-140,-80,-30
20,-50,-70,15,45,-60,90,0,10,-130,-80,-40
30,-60,-90,15,60,-75,100,0,20,-120,-60,-30
30,-70,-100,20,65,-85,110,10,30,-110,-60,-30
30,-80,-110,25,70,-95,120,20,30,-90,-40,-40
10,-100,-110,45,60,-105,110,20,30,-100,-50,-50
-10,-70,-60,40,25,-65,110,30,30,-90,-40,-50
0,-40,-40,20,20,-40,120,40,30,-120,-70,-60
0,-90,-90,45,45,-90,110,70,40,-110,-40,-40
-20,-80,-60,50,20,-70,100,60,40,-120,-50,-10
-20,-70,-50,45,15,-60,120,60,60,-110,-50,-30
-10,-60,-50,35,20,-55,130,70,90,-90,-40,-40
20,-40,-60,10,40,-50,120,70,110,-60,-10,-10
40,-40,-80,-0,60,-60,140,90,120,-60,0,10
-20,-60,-40,40,10,-50,160,110,130,-30,10,-50
10,-30,-40,10,25,-35,140,90,90,-70,-30,-120
30,0,-30,-15,30,-15,110,110,110,-30,40,10
-20,10,30,5,-25,20,130,130,120,-40,50,-10
10,50,40,-30,-15,45,160,150,120,-20,50,0
0,30,30,-15,-15,30,160,160,150,-30,40,-20
50,10,-40,-30,45,-15,150,180,180,10,80,10
100,20,-80,-60,90,-30,140,180,200,10,90,90
60,10,-50,-35,55,-20,140,160,190,20,50,50
-10,-30,-20,20,5,-25,170,140,160,-20,40,0
0,-20,-20,10,10,-20,160,150,160,-20,50,40
10,-60,-70,25,40,-65,160,180,180,0,60,20
10,-40,-50,15,30,-45,150,180,170,-10,60,60
0,-40,-40,20,20,-40,170,200,170,-20,40,50
0,-10,-10,5,5,-10,160,190,170,-10,50,30
20,-10,-30,-5,25,-20,160,200,180,-20,50,70
20,10,-10,-15,15,0,150,190,180,-20,40,50
30,-10,-40,-10,35,-25,150,200,200,-10,30,20
40,-60,-100,10,70,-80,150,210,210,10,50,30
50,-30,-80,-10,65,-55,150,210,230,30,60,60
60,-20,-80,-20,70,-50,150,220,230,60,80,60
40,-30,-70,-5,55,-50,140,210,210,30,70,90
30,-10,-40,-10,35,-25,150,240,210,40,80,100
40,10,-30,-25,35,-10,150,250,230,50,90,110
20,10,-10,-15,15,0,140,250,240,60,100,110
30,-20,-50,-5,40,-35,160,260,250,60,100,110
20,-40,-60,10,40,-50,160,270,270,80,120,120
30,-60,-90,15,60,-75,160,280,290,90,130,130
40,-40,-80,-0,60,-60,160,290,310,130,160,140
60,-40,-100,-10,80,-70,160,300,320,140,170,130
60,-40,-100,-10,80,-70,170,310,330,160,200,150
60,-50,-110,-5,85,-80,160,320,330,180,210,180
50,-30,-80,-10,65,-55,170,350,350,200,230,190
70,-10,-80,-30,75,-45,190,370,360,210,240,220
60,-10,-70,-25,65,-40,180,380,370,220,240,210
70,-10,-80,-30,75,-45,180,400,380,240,270,220
80,0,-80,-40,80,-40,200,400,400,250,250,230
70,-20,-90,-25,80,-55,180,400,410,260,260,230
80,-10,-90,-35,85,-50,180,400,420,290,270,220
80,-10,-90,-35,85,-50,190,410,430,290,270,210
70,-30,-100,-20,85,-65,180,430,450,330,310,260
100,0,-100,-50,100,-50,180,450,460,340,320,280
80,20,-60,-50,70,-20,190,480,470,360,330,310
100,20,-80,-60,90,-30,200,500,490,380,350,330
100,30,-70,-65,85,-20,190,520,500,390,360,340
100,30,-70,-65,85,-20,190,530,540,410,370,370
120,60,-60,-90,90,0,190,550,560,420,380,370
120,80,-40,-100,80,20,200,580,600,460,410,370
120,80,-40,-100,80,20,190,580,620,480,420,370
130,80,-50,-105,90,15,190,590,640,500,430,400
120,70,-50,-95,85,10,190,630,660,530,460,410
130,90,-40,-110,85,25,190,650,670,540,470,420
160,110,-50,-135,105,30,190,690,690,580,500,470
170,140,-30,-155,100,55,190,720,730,610,520,510
170,160,-10,-165,90,75,180,730,750,620,520,530
170,160,-10,-165,90,75,190,750,770,640,530,560
180,170,-10,-175,95,80,200,780,810,690,580,580
180,170,-10,-175,95,80,210,820,860,710,600,560
210,160,-50,-185,130,55,190,820,879,740,620,610
220,180,-40,-200,130,70,190,860,919,780,670,660
220,190,-30,-205,125,80,190,879,939,810,690,650
210,200,-10,-205,110,95,180,889,939,820,680,620
230,230,0,-230,115,115,170,909,969,840,700,660
260,260,0,-260,130,130,180,939,989,869,720,700
240,270,30,-255,105,150,170,949,1019,889,730,690
270,310,40,-290,115,175,170,979,1049,899,750,680
280,330,50,-305,115,190,170,999,1069,929,750,710
270,330,60,-300,105,195,160,1009,1099,949,790,710
280,330,50,-305,115,190,170,1029,1119,989,800,720
290,330,40,-310,125,185,150,1029,1149,1019,830,730
310,360,50,-335,130,205,150,1059,1149,1029,850,750
290,370,80,-330,105,225,150,1059,1139,1029,850,770
290,390,100,-340,95,245,140,1079,1159,1039,860,800
300,420,120,-360,90,270,150,1099,1169,1059,869,770
280,410,130,-345,75,270,130,1099,1169,1039,869,790
280,430,150,-355,65,290,140,1099,1159,1029,850,750
260,450,190,-355,35,320,160,1109,1169,1049,850,740
290,440,150,-365,70,295,140,1129,1199,1069,889,820
330,460,130,-395,100,295,130,1089,1189,1089,889,830
350,490,140,-420,105,315,130,1109,1179,1099,909,850
330,480,150,-405,90,315,130,1119,1179,1099,919,860
330,490,160,-410,85,325,130,1119,1159,1099,909,850
330,500,170,-415,80,335,120,1109,1149,1069,869,830
320,500,180,-410,70,340,130,1089,1119,1059,869,860
290,500,210,-395,40,355,150,1089,1099,1039,869,860
290,500,210,-395,40,355,140,1059,1079,1019,840,840
270,480,210,-375,30,345,140,1019,1039,989,810,800
270,480,210,-375,30,345,140,989,1009,949,780,780
250,490,240,-370,5,365,140,969,989,939,760,760
260,510,250,-385,5,380,150,929,929,909,730,750
240,490,250,-365,-5,370,140,899,879,869,680,720
230,460,230,-345,0,345,160,869,850,830,670,700
220,470,250,-345,-15,360,170,840,800,790,640,700
180,470,290,-325,-55,380,140,790,730,720,580,650
190,440,250,-315,-30,345,150,750,670,670,520,620
150,400,250,-275,-50,325,170,720,620,630,480,600
130,380,250,-255,-60,315,170,670,570,570,440,570
140,370,230,-255,-45,300,160,620,520,520,400,540
110,350,240,-230,-65,295,170,570,470,490,370,500
90,310,220,-200,-65,265,180,540,420,450,330,460
100,300,200,-200,-50,250,170,490,380,420,310,460
90,280,190,-185,-50,235,170,460,330,380,270,430
90,280,190,-185,-50,235,170,430,270,330,230,400
60,260,200,-160,-70,230,160,400,230,280,190,380
40,230,190,-135,-75,210,170,360,190,250,150,340
30,220,190,-125,-80,205,170,340,160,210,120,340
0,190,190,-95,-95,190,170,310,120,170,90,290
20,180,160,-100,-70,170,160,270,90,140,70,290
10,160,150,-85,-70,155,150,250,80,140,50,250
-20,130,150,-55,-85,140,160,230,40,110,20,220
0,120,120,-60,-60,120,150,220,10,90,20,230
-10,110,120,-50,-65,115,150,200,10,90,20,240
-30,80,110,-25,-70,95,150,180,-20,70,0,230
-40,80,120,-20,-80,100,140,180,-40,50,-10,230
-40,50,90,-5,-65,70,130,160,-80,20,-40,220
-10,50,60,-20,-35,55,110,130,-90,0,-60,210
-10,50,60,-20,-35,55,120,120,-100,-30,-90,170
-10,30,40,-10,-25,35,120,100,-100,-30,-70,210
-20,10,30,5,-25,20,110,100,-100,-30,-80,220
-30,-10,20,20,-25,5,110,90,-110,-30,-80,220
-40,0,40,20,-40,20,100,90,-120,-30,-90,180
-40,0,40,20,-40,20,100,90,-120,-20,-70,210
-40,-10,30,25,-35,10,100,80,-160,-50,-110,200
-20,-10,10,15,-15,0,90,70,-160,-50,-120,190
-40,-20,20,30,-30,0,90,80,-150,-50,-110,200
-40,-30,10,35,-25,-10,90,60,-150,-70,-120,190
-50,-30,20,40,-35,-5,110,80,-150,-60,-120,180
-50,-30,20,40,-35,-5,100,70,-140,-70,-120,180
-50,-50,0,50,-25,-25,80,40,-150,-70,-140,170
-50,-60,-10,55,-20,-35,100,60,-150,-60,-130,140
-60,-70,-10,65,-25,-40,80,40,-170,-70,-140,130
-50,-60,-10,55,-20,-35,80,60,-160,-50,-100,180
-50,-70,-20,60,-15,-45,90,50,-170,-70,-120,170
-70,-90,-20,80,-25,-55,80,50,-180,-70,-130,160
-50,-80,-30,65,-10,-55,80,50,-180,-80,-130,160
-50,-80,-30,65,-10,-55,90,50,-170,-80,-140,170
-40,-80,-40,60,0,-60,90,50,-180,-80,-150,160
-40,-70,-30,55,-5,-50,90,60,-170,-80,-140,160
-60,-80,-20,70,-20,-50,80,40,-170,-70,-140,150
-40,-70,-30,55,-5,-50,80,40,-170,-60,-140,160
-60,-90,-30,75,-15,-60,80,30,-190,-70,-140,140
-80,-100,-20,90,-30,-60,90,40,-190,-60,-140,150
-60,-80,-20,70,-20,-50,90,40,-200,-70,-140,130
-80,-80,0,80,-40,-40,70,50,-200,-80,-150,140
-70,-80,-10,75,-30,-45,70,50,-200,-80,-150,130
-50,-70,-20,60,-15,-45,80,40,-190,-80,-150,110
-50,-70,-20,60,-15,-45,90,40,-180,-80,-150,140
-50,-60,-10,55,-20,-35,90,50,-170,-60,-130,140
-60,-70,-10,65,-25,-40,70,30,-180,-70,-160,120
-50,-70,-20,60,-15,-45,70,30,-180,-60,-150,160
-40,-70,-30,55,-5,-50,80,60,-160,-30,-130,150
-30,-70,-40,50,5,-55,70,50,-170,-50,-140,120
-40,-70,-30,55,-5,-50,80,60,-170,-40,-130,130
-30,-60,-30,45,0,-45,70,70,-190,-60,-130,150
-60,-70,-10,65,-25,-40,70,80,-170,-50,-130,130
-60,-60,0,60,-30,-30,80,80,-170,-50,-140,120
-50,-40,10,45,-30,-15,80,80,-170,-50,-140,140
-30,-10,20,20,-25,5,60,80,-160,-30,-120,130
-30,-40,-10,35,-10,-25,60,80,-160,-40,-130,140
-50,-60,-10,55,-20,-35,80,100,-170,-20,-130,140
-30,-60,-30,45,0,-45,70,100,-160,-30,-120,130
-20,-30,-10,25,-5,-20,70,110,-150,-20,-120,140
-40,-30,10,35,-25,-10,70,100,-150,-20,-130,150
-50,-40,10,45,-30,-15,60,120,-160,-30,-130,140
-70,-60,10,65,-40,-25,60,110,-150,-30,-130,120
-50,-30,20,40,-35,-5,70,120,-130,-20,-120,140
-40,-40,0,40,-20,-20,80,120,-130,-20,-120,140
-70,-50,20,60,-45,-15,70,120,-140,-20,-110,130
-50,-40,10,45,-30,-15,60,110,-130,-20,-110,140
-30,-20,10,25,-20,-5,60,110,-130,-20,-110,120
-40,-40,0,40,-20,-20,50,110,-140,-30,-120,110
-30,-30,0,30,-15,-15,70,120,-120,-10,-90,130
-20,-30,-10,25,-5,-20,60,110,-130,-20,-100,130
-20,-30,-10,25,-5,-20,50,130,-140,-20,-110,120
-40,-40,0,40,-20,-20,50,120,-140,-30,-120,130
-50,-40,10,45,-30,-15,50,120,-130,-30,-120,130
-30,-30,0,30,-15,-15,50,130,-130,-40,-110,120
-10,-40,-30,25,10,-35,40,130,-130,-30,-110,100
0,-30,-30,15,15,-30,40,110,-130,-40,-120,100
10,-20,-30,5,20,-25,40,110,-140,-40,-120,90
0,-50,-50,25,25,-50,40,120,-140,-30,-110,90
-40,-50,-10,45,-15,-30,60,150,-110,0,-90,130
-70,-40,30,55,-50,-5,80,160,-100,-10,-80,130
-50,-40,10,45,-30,-15,60,160,-120,-10,-80,120
-30,-40,-10,35,-10,-25,60,160,-110,-20,-80,130
-30,-10,20,20,-25,5,60,160,-100,-10,-90,140
-50,-40,10,45,-30,-15,60,150,-100,-30,-80,120
-50,-50,0,50,-25,-25,70,150,-90,-30,-100,90
-60,-40,20,50,-40,-10,80,140,-90,-20,-100,100
-70,-30,40,50,-55,5,70,140,-110,-20,-100,100
-50,-30,20,40,-35,-5,50,140,-120,-20,-100,100
-50,-30,20,40,-35,-5,60,150,-100,-10,-90,70
-30,-10,20,20,-25,5,80,160,-100,-10,-80,90
-20,-10,10,15,-15,0,60,160,-110,-10,-70,130
-20,-30,-10,25,-5,-20,50,150,-110,-20,-80,120
-40,-20,20,30,-30,0,60,150,-110,-30,-80,120
-50,-50,0,50,-25,-25,60,140,-120,-40,-80,90
-50,-40,10,45,-30,-15,60,150,-110,-30,-90,80
-50,-40,10,45,-30,-15,70,150,-110,-40,-100,70
-60,-70,-10,65,-25,-40,60,140,-120,-30,-110,70
-30,-50,-20,40,-5,-35,50,140,-130,-30,-90,90
-10,-20,-10,15,0,-15,50,150,-110,-30,-90,90
-40,-50,-10,45,-15,-30,50,140,-130,-40,-100,70
-60,-60,0,60,-30,-30,60,150,-130,-30,-90,70
-40,-60,-20,50,-10,-40,70,140,-130,-50,-100,70
-40,-30,10,35,-25,-10,60,140,-140,-60,-110,20
-50,-30,20,40,-35,-5,60,130,-140,-60,-110,30
-70,-50,20,60,-45,-15,60,130,-120,-50,-110,30
-70,-40,30,55,-50,-5,50,130,-120,-50,-110,40
-70,-40,30,55,-50,-5,60,130,-130,-50,-120,30
-50,-50,0,50,-25,-25,50,140,-130,-30,-110,10
-60,-50,10,55,-35,-20,60,140,-130,-50,-120,20
-50,-50,0,50,-25,-25,50,130,-150,-50,-120,30
-80,-50,30,65,-55,-10,40,140,-150,-50,-120,30
-70,-40,30,55,-50,-5,50,130,-150,-80,-130,0
-50,-40,10,45,-30,-15,60,140,-130,-70,-130,0
-50,-40,10,45,-30,-15,50,120,-140,-70,-130,-20
-60,-40,20,50,-40,-10,30,120,-150,-80,-130,0
-80,-50,30,65,-55,-10,40,110,-150,-80,-140,-10
-50,-20,30,35,-40,5,50,110,-150,-90,-140,-10
-30,-50,-20,40,-5,-35,40,120,-150,-70,-140,-40
-50,-60,-10,55,-20,-35,30,110,-160,-80,-150,-20
-50,-60,-10,55,-20,-35,30,110,-160,-80,-130,20
-70,-70,0,70,-35,-35,20,110,-170,-90,-140,-20
-30,-60,-30,45,0,-45,30,120,-160,-100,-140,-30
-30,-70,-40,50,5,-55,40,100,-160,-100,-140,-10
-40,-70,-30,55,-5,-50,40,100,-170,-100,-150,-20
-50,-60,-10,55,-20,-35,60,120,-160,-90,-130,0
-60,-80,-20,70,-20,-50,50,110,-150,-90,-140,0
-50,-80,-30,65,-10,-55,70,110,-150,-80,-130,-20
-50,-80,-30,65,-10,-55,70,110,-160,-70,-120,0
-90,-120,-30,105,-30,-75,60,110,-170,-100,-140,-20
-70,-100,-30,85,-20,-65,50,100,-170,-100,-140,-20
-70,-100,-30,85,-20,-65,60,100,-190,-110,-150,-30
-90,-90,0,90,-45,-45,50,90,-190,-130,-160,-50
-70,-90,-20,80,-25,-55,60,100,-180,-120,-150,-30
-80,-90,-10,85,-35,-50,50,90,-200,-140,-170,-70
-90,-90,0,90,-45,-45,40,100,-190,-130,-170,-60
-80,-100,-20,90,-30,-60,40,100,-170,-120,-150,-40
-70,-110,-40,90,-15,-75,50,90,-180,-120,-150,-40
-60,-100,-40,80,-10,-70,60,100,-180,-110,-140,-20
-70,-100,-30,85,-20,-65,60,120,-170,-110,-150,-30
-70,-100,-30,85,-20,-65,50,110,-180,-130,-160,-50
-70,-110,-40,90,-15,-75,60,120,-190,-130,-140,-40
-70,-120,-50,95,-10,-85,40,110,-180,-140,-150,-40
-80,-120,-40,100,-20,-80,50,110,-180,-150,-170,-50
-70,-110,-40,90,-15,-75,50,100,-200,-150,-180,-60
-80,-110,-30,95,-25,-70,40,100,-190,-150,-170,-50
-70,-100,-30,85,-20,-65,40,80,-190,-150,-170,-80
-70,-110,-40,90,-15,-75,50,90,-180,-140,-170,-70
-60,-90,-30,75,-15,-60,50,90,-190,-130,-160,-60
-70,-70,0,70,-35,-35,60,100,-170,-130,-160,-40
-80,-100,-20,90,-30,-60,40,90,-190,-140,-160,-60
-80,-100,-20,90,-30,-60,30,90,-180,-150,-160,-60
-60,-90,-30,75,-15,-60,30,110,-180,-150,-160,-50
-80,-110,-30,95,-25,-70,40,110,-180,-160,-180,-50
-80,-120,-40,100,-20,-80,40,100,-190,-160,-170,-60
-100,-130,-30,115,-35,-80,50,100,-190,-160,-180,-80
-90,-110,-20,100,-35,-65,40,100,-190,-160,-180,-80
-70,-100,-30,85,-20,-65,40,90,-180,-150,-170,-60
-90,-120,-30,105,-30,-75,30,100,-180,-140,-160,-60
-90,-110,-20,100,-35,-65,50,100,-170,-150,-160,-60
-100,-110,-10,105,-45,-60,50,90,-190,-150,-160,-60
-110,-110,0,110,-55,-55,40,100,-180,-150,-150,-60
-100,-80,20,90,-60,-30,30,100,-190,-160,-160,-100
-90,-90,0,90,-45,-45,40,90,-190,-180,-170,-100
-80,-90,-10,85,-35,-50,40,90,-190,-170,-180,-100
-90,-110,-20,100,-35,-65,40,100,-170,-160,-170,-80
-90,-110,-20,100,-35,-65,40,90,-180,-180,-180,-80
-90,-100,-10,95,-40,-55,40,80,-190,-180,-180,-100
-100,-110,-10,105,-45,-60,20,80,-190,-170,-170,-100
-120,-140,-20,130,-50,-80,40,100,-170,-170,-160,-90
-110,-130,-20,120,-45,-75,50,100,-190,-170,-170,-100
-100,-130,-30,115,-35,-80,50,100,-170,-170,-170,-100
-100,-110,-10,105,-45,-60,50,110,-170,-170,-160,-110
-90,-100,-10,95,-40,-55,40,100,-170,-180,-180,-120
-100,-130,-30,115,-35,-80,50,100,-170,-180,-190,-110
-90,-140,-50,115,-20,-95,40,110,-170,-170,-190,-110
-110,-150,-40,130,-35,-95,40,100,-170,-180,-190,-110
-110,-140,-30,125,-40,-85,50,90,-170,-180,-190,-110
-90,-140,-50,115,-20,-95,40,100,-170,-170,-180,-130
-100,-150,-50,125,-25,-100,40,90,-170,-180,-190,-130
-100,-140,-40,120,-30,-90,40,90,-170,-180,-190,-130
-90,-100,-10,95,-40,-55,30,90,-180,-180,-180,-120
-90,-130,-40,110,-25,-85,30,90,-190,-190,-190,-130
-80,-110,-30,95,-25,-70,40,90,-170,-190,-190,-130
-100,-120,-20,110,-40,-70,50,100,-170,-170,-180,-130
-110,-130,-20,120,-45,-75,40,100,-180,-170,-200,-150
-90,-110,-20,100,-35,-65,40,100,-160,-190,-200,-140
-100,-120,-20,110,-40,-70,40,100,-160,-170,-200,-130
-100,-130,-30,115,-35,-80,50,110,-170,-160,-190,-120
-100,-150,-50,125,-25,-100,40,100,-180,-180,-190,-150
-120,-140,-20,130,-50,-80,50,90,-170,-180,-200,-150
-120,-120,0,120,-60,-60,50,90,-170,-190,-200,-150
-100,-120,-20,110,-40,-70,40,110,-170,-190,-210,-180
-80,-130,-50,105,-15,-90,50,110,-150,-180,-190,-150
-100,-120,-20,110,-40,-70,50,110,-170,-180,-190,-140
-110,-130,-20,120,-45,-75,40,100,-170,-200,-210,-160
-100,-120,-20,110,-40,-70,50,110,-170,-190,-220,-150
-80,-100,-20,90,-30,-60,50,100,-160,-180,-200,-160
-100,-120,-20,110,-40,-70,30,90,-170,-200,-210,-160
-90,-120,-30,105,-30,-75,30,90,-170,-210,-220,-170
-100,-140,-40,120,-30,-90,30,90,-160,-200,-210,-150
-100,-140,-40,120,-30,-90,20,80,-170,-210,-220,-180
-90,-150,-60,120,-15,-105,20,110,-160,-200,-210,-160
-90,-180,-90,135,0,-135,20,110,-170,-200,-210,-170
-80,-210,-130,145,25,-170,20,120,-160,-190,-200,-160
-60,-200,-140,130,40,-170,20,140,-140,-180,-190,-150
-60,-210,-150,135,45,-180,10,130,-140,-180,-210,-170
-40,-210,-170,125,65,-190,20,150,-110,-160,-190,-160
-40,-220,-180,130,70,-200,20,160,-110,-150,-180,-180
-60,-260,-200,160,70,-230,20,160,-120,-170,-200,-190
-50,-290,-240,170,95,-265,10,160,-130,-180,-200,-200
-60,-330,-270,195,105,-300,10,150,-140,-200,-210,-210
-60,-350,-290,205,115,-320,20,150,-150,-210,-220,-220
-70,-340,-270,205,100,-305,30,140,-140,-220,-220,-210
-70,-340,-270,205,100,-305,20,140,-140,-200,-210,-210
-40,-310,-270,175,115,-290,10,140,-140,-190,-200,-200
-30,-290,-260,160,115,-275,20,150,-130,-180,-200,-190
-40,-270,-230,155,95,-250,40,170,-110,-160,-180,-180
-30,-240,-210,135,90,-225,30,170,-110,-160,-180,-180
-40,-250,-210,145,85,-230,30,180,-100,-160,-180,-160
-40,-230,-190,135,75,-210,30,180,-100,-160,-170,-170
-30,-200,-170,115,70,-185,40,200,-80,-150,-160,-160
-40,-200,-160,120,60,-180,20,190,-90,-150,-160,-160
-40,-180,-140,110,50,-160,30,180,-80,-170,-170,-170
-60,-190,-130,125,35,-160,30,170,-90,-160,-160,-160
-50,-190,-140,120,45,-165,10,150,-100,-190,-180,-170
-50,-180,-130,115,40,-155,0,120,-120,-200,-220,-190
-50,-200,-150,125,50,-175,0,100,-120,-210,-220,-200
-30,-180,-150,105,60,-165,0,100,-120,-200,-210,-200
-40,-140,-100,90,30,-120,10,110,-110,-200,-220,-200
-70,-150,-80,110,5,-115,0,120,-120,-210,-220,-200
-70,-140,-70,105,0,-105,30,120,-100,-210,-210,-190
-70,-140,-70,105,0,-105,20,130,-110,-210,-210,-190
-100,-150,-50,125,-25,-100,30,130,-100,-200,-210,-190
-100,-130,-30,115,-35,-80,40,130,-100,-200,-220,-200
-110,-140,-30,125,-40,-85,40,130,-90,-210,-220,-220
-110,-140,-30,125,-40,-85,50,130,-100,-210,-220,-210
-110,-160,-50,135,-30,-105,50,100,-110,-220,-230,-210
-110,-190,-80,150,-15,-135,30,90,-140,-240,-250,-240
-120,-180,-60,150,-30,-120,30,70,-150,-260,-270,-250
-140,-180,-40,160,-50,-110,30,50,-170,-280,-280,-260
-130,-160,-30,145,-50,-95,20,60,-170,-280,-270,-240
-110,-150,-40,130,-35,-95,40,70,-150,-270,-260,-250
-120,-160,-40,140,-40,-100,30,60,-160,-280,-280,-270
-120,-160,-40,140,-40,-100,40,50,-160,-280,-280,-260
-120,-150,-30,135,-45,-90,30,40,-160,-290,-280,-280
-150,-170,-20,160,-65,-95,30,40,-150,-290,-290,-270
-160,-170,-10,165,-75,-90,40,50,-130,-270,-290,-250
-160,-180,-20,170,-70,-100,20,50,-130,-270,-280,-260
-160,-160,0,160,-80,-80,30,60,-130,-270,-280,-260
-150,-140,10,145,-80,-65,40,50,-150,-280,-280,-280
-170,-140,30,155,-100,-55,20,30,-160,-280,-280,-280
-130,-130,0,130,-65,-65,40,60,-140,-270,-270,-260
-140,-120,20,130,-80,-50,40,50,-140,-290,-280,-260
-130,-130,0,130,-65,-65,40,30,-150,-280,-280,-280
-110,-130,-20,120,-45,-75,40,50,-130,-270,-270,-270
-110,-160,-50,135,-30,-105,40,80,-120,-250,-260,-260
-110,-200,-90,155,-10,-145,40,120,-90,-220,-230,-260
-70,-220,-150,145,40,-185,30,220,0,-130,-150,-240
-20,-240,-220,130,100,-230,0,340,140,-30,-60,-180
40,-240,-280,100,160,-260,-20,440,270,90,40,-130
70,-220,-290,75,180,-255,-40,480,370,170,110,-80
120,-120,-240,-0,180,-180,-90,490,480,260,180,-40
170,20,-150,-95,160,-65,-140,580,700,450,310,60
220,160,-60,-190,140,50,-160,710,939,640,480,180
240,350,110,-295,65,230,-80,730,1129,810,610,310
270,540,270,-405,0,405,-80,520,1179,909,740,440
270,730,460,-500,-95,595,-140,130,1139,989,830,570
290,939,650,-615,-180,795,-230,-270,1069,1089,939,740
300,1209,909,-755,-305,1059,-300,-650,969,1119,999,899
230,1529,1299,-879,-535,1414,-400,-1109,710,1009,939,1009
180,1759,1579,-969,-700,1669,-530,-1509,430,860,840,1079
90,1959,1869,-1024,-889,1914,-630,-1839,200,720,720,1099
-10,2259,2269,-1124,-1139,2264,-730,-2229,-60,550,580,1119
-70,2449,2519,-1189,-1294,2484,-929,-2608,-420,320,420,1109
-70,2419,2489,-1174,-1279,2454,-1219,-2938,-810,60,240,1089
0,2269,2269,-1134,-1134,2269,-1499,-3038,-1019,-100,150,1069
10,1989,1979,-999,-984,1984,-1629,-2978,-1149,-250,40,969
-20,1599,1619,-790,-820,1609,-1559,-2758,-1189,-380,-90,790
-60,1149,1209,-545,-635,1179,-1409,-2519,-1249,-530,-250,540
-130,750,879,-310,-505,815,-1289,-2379,-1399,-790,-480,300
-200,400,600,-100,-400,500,-1179,-2259,-1569,-1069,-730,10
-280,50,330,115,-305,190,-969,-2069,-1749,-1369,-979,-290
-360,-160,200,260,-280,20,-710,-1809,-1689,-1429,-1079,-500
-360,-210,150,285,-255,-30,-530,-1529,-1429,-1289,-1019,-570
-340,-250,90,295,-215,-80,-420,-1269,-1189,-1079,-869,-530
-310,-210,100,260,-205,-55,-350,-1059,-969,-909,-740,-470
-260,-130,130,195,-195,0,-310,-879,-810,-780,-650,-440
-230,-130,100,180,-165,-15,-250,-710,-670,-670,-570,-380
-200,-150,50,175,-125,-50,-150,-510,-510,-540,-470,-340
-190,-150,40,170,-115,-55,-60,-340,-360,-450,-400,-290
-180,-120,60,150,-120,-30,-20,-230,-250,-390,-340,-280
-130,-60,70,95,-100,5,0,-140,-160,-310,-280,-250
-120,-30,90,75,-105,30,20,-50,-70,-240,-220,-230
-90,-20,70,55,-80,25,40,10,-10,-190,-180,-210
-100,-30,70,65,-85,20,60,50,20,-160,-150,-190
-110,-50,60,80,-85,5,60,60,10,-170,-150,-200
-110,-40,70,75,-90,15,80,80,10,-160,-150,-200
-120,-50,70,85,-95,10,90,90,0,-180,-160,-190
-120,-50,70,85,-95,10,70,110,0,-180,-170,-200
-90,-30,60,60,-75,15,80,130,30,-170,-170,-190
-90,-30,60,60,-75,15,90,120,40,-180,-170,-200
-90,-60,30,75,-60,-15,100,130,70,-150,-150,-190
-100,-70,30,85,-65,-20,90,130,90,-140,-150,-210
-110,-80,30,95,-70,-25,80,120,100,-130,-140,-220
-110,-80,30,95,-70,-25,100,120,90,-110,-120,-220
-110,-70,40,90,-75,-15,100,140,90,-110,-110,-210
-100,-80,20,90,-60,-30,90,140,80,-110,-130,-200
-70,-70,0,70,-35,-35,90,160,80,-110,-120,-180
-70,-50,20,60,-45,-15,110,170,90,-100,-130,-170
-60,-40,20,50,-40,-10,90,170,90,-120,-140,-180
-60,-40,20,50,-40,-10,100,170,110,-110,-140,-180
-80,-70,10,75,-45,-30,110,180,140,-90,-120,-170
-70,-60,10,65,-40,-25,110,170,150,-90,-110,-170
-70,-80,-10,75,-30,-45,100,180,160,-80,-100,-170
-70,-80,-10,75,-30,-45,110,180,160,-50,-80,-160
-70,-60,10,65,-40,-25,110,200,160,-40,-60,-140
-80,-70,10,75,-45,-30,100,200,160,-50,-70,-150
-80,-70,10,75,-45,-30,100,210,140,-50,-60,-150
-60,-60,0,60,-30,-30,110,210,140,-40,-80,-140
-60,-60,0,60,-30,-30,110,220,160,-50,-70,-130
-40,-40,0,40,-20,-20,110,210,180,-40,-70,-130
-60,-70,-10,65,-25,-40,130,220,200,-20,-60,-120
-60,-70,-10,65,-25,-40,130,200,200,-30,-60,-130
-40,-60,-20,50,-10,-40,120,210,220,-10,-40,-120
-60,-70,-10,65,-25,-40,130,210,230,10,-20,-120
-60,-70,-10,65,-25,-40,130,210,210,10,-20,-130
-60,-50,10,55,-35,-20,110,210,200,0,-40,-120
-60,-50,10,55,-35,-20,110,220,210,0,-40,-110
-70,-40,30,55,-50,-5,130,220,210,0,-40,-100
-60,-40,20,50,-40,-10,120,230,220,-10,-50,-100
-40,-20,20,30,-30,0,120,230,240,0,-30,-100
-20,-40,-20,30,0,-30,130,240,270,30,-10,-90
-40,-60,-20,50,-10,-40,130,240,280,30,-10,-90
-30,-60,-30,45,0,-45,130,250,290,50,10,-80
-30,-60,-30,45,0,-45,150,250,300,90,40,-80
-20,-70,-50,45,15,-60,130,260,300,90,40,-70
-30,-40,-10,35,-10,-25,120,260,300,80,40,-70
-40,-50,-10,45,-15,-30,120,270,300,90,40,-70
-40,-50,-10,45,-15,-30,130,280,300,90,40,-40
-30,-30,0,30,-15,-15,120,290,310,80,40,-40
-40,-40,0,40,-20,-20,120,280,330,100,50,-50
-20,-60,-40,40,10,-50,120,290,340,110,50,-40
-10,-60,-50,35,20,-55,130,300,360,130,80,-40
-20,-50,-30,35,5,-40,130,300,360,140,90,-40
-10,-50,-40,30,15,-45,140,310,390,170,120,-10
-10,-50,-40,30,15,-45,130,320,400,180,120,-10
-20,-30,-10,25,-5,-20,130,320,400,170,120,-10
-20,-20,0,20,-10,-10,130,350,410,190,130,0
-20,-30,-10,25,-5,-20,130,350,420,180,130,10
0,-30,-30,15,15,-30,120,370,430,180,120,20
20,-20,-40,-0,30,-30,120,370,440,200,130,20
10,-40,-50,15,30,-45,110,380,470,220,150,20
0,-40,-40,20,20,-40,120,390,500,240,170,40
20,-40,-60,10,40,-50,100,380,500,250,200,40
30,-20,-50,-5,40,-35,110,390,510,290,210,50
40,-10,-50,-15,45,-30,110,410,520,300,230,50
40,-10,-50,-15,45,-30,100,420,550,310,240,70
50,10,-40,-30,45,-15,110,450,580,340,260,110
60,30,-30,-45,45,0,120,480,600,350,270,120
70,30,-40,-50,55,-5,120,500,610,370,280,130
80,50,-30,-65,55,10,120,500,640,380,300,130
70,30,-40,-50,55,-5,120,520,670,410,310,150
80,30,-50,-55,65,-10,120,520,700,430,340,160
100,40,-60,-70,80,-10,110,550,730,450,360,160
90,50,-40,-70,65,5,120,560,760,490,380,190
120,70,-50,-95,85,10,120,590,760,520,400,200
120,70,-50,-95,85,10,120,620,800,550,430,230
130,90,-40,-110,85,25,110,650,810,560,440,240
150,120,-30,-135,90,45,120,670,840,600,460,270
170,130,-40,-150,105,45,110,700,879,630,500,290
180,130,-50,-155,115,40,100,700,919,650,520,310
180,140,-40,-160,110,50,100,730,969,700,550,330
170,130,-40,-150,105,45,110,760,1019,750,600,360
200,160,-40,-180,120,60,110,780,1059,790,640,390
200,170,-30,-185,115,70,90,800,1079,810,670,410
210,180,-30,-195,120,75,80,820,1099,840,690,420
220,210,-10,-215,115,100,70,840,1119,869,710,450
230,210,-20,-220,125,95,80,879,1139,879,750,470
240,230,-10,-235,125,110,80,899,1159,899,760,490
270,260,-10,-265,140,125,70,919,1179,899,770,510
260,260,0,-260,130,130,60,919,1219,929,780,510
240,270,30,-255,105,150,60,939,1249,979,800,520
230,240,10,-235,110,125,50,929,1269,999,820,520
240,220,-20,-230,130,100,50,949,1309,1009,850,540
250,250,0,-250,125,125,40,959,1309,1029,860,540
250,260,10,-255,120,135,30,969,1309,1049,879,570
250,290,40,-270,105,165,20,969,1319,1059,889,600
270,330,60,-300,105,195,30,979,1319,1069,889,600
260,340,80,-300,90,210,20,989,1299,1059,879,610
290,340,50,-315,120,195,20,999,1309,1059,899,610
280,340,60,-310,110,200,10,989,1319,1049,899,610
280,340,60,-310,110,200,10,999,1339,1079,909,630
320,370,50,-345,135,210,10,979,1349,1079,909,630
320,400,80,-360,120,240,0,969,1329,1069,909,630
300,390,90,-345,105,240,0,959,1319,1089,919,640
310,400,90,-355,110,245,10,959,1309,1089,919,640
270,400,130,-335,70,265,20,939,1279,1049,889,620
280,400,120,-340,80,260,20,929,1239,1029,879,630
260,400,140,-330,60,270,30,919,1219,1009,860,630
270,400,130,-335,70,265,30,899,1189,959,820,590
260,410,150,-335,55,280,40,869,1159,919,790,560
250,370,120,-310,65,245,50,840,1119,899,770,540
240,370,130,-305,55,250,60,790,1069,850,740,510
230,370,140,-300,45,255,80,750,1029,810,710,490
200,350,150,-275,25,250,80,700,989,760,650,460
180,360,180,-270,0,270,80,680,909,710,610,420
150,340,190,-245,-20,265,90,620,840,640,560,390
140,330,190,-235,-25,260,80,580,750,570,500,340
120,320,200,-220,-40,260,100,540,690,520,450,310
100,310,210,-205,-55,260,90,480,620,450,380,260
80,280,200,-180,-60,240,100,440,580,410,350,240
80,260,180,-170,-50,220,110,380,530,360,330,200
50,240,190,-145,-70,215,120,330,480,300,270,140
50,230,180,-140,-65,205,120,300,440,270,260,130
30,200,170,-115,-70,185,120,240,370,220,200,90
10,170,160,-90,-75,165,130,220,330,170,180,70
-10,150,160,-70,-85,155,130,190,280,130,150,40
-20,130,150,-55,-85,140,110,130,210,80,100,10
-30,120,150,-45,-90,135,110,120,180,40,70,-10
-40,110,150,-35,-95,130,110,80,130,0,30,-40
-70,90,160,-10,-115,125,110,40,90,-40,0,-70
-50,70,120,-10,-85,95,110,10,80,-60,-20,-80
-60,50,110,5,-85,80,110,-10,70,-60,-40,-90
-60,30,90,15,-75,60,110,-30,50,-70,-30,-100
-60,10,70,25,-65,40,120,-50,30,-80,-40,-100
-70,-20,50,45,-60,15,110,-60,10,-100,-50,-110
-70,-20,50,45,-60,15,110,-80,-30,-120,-70,-110
-60,-10,50,35,-55,20,100,-90,-60,-150,-100,-130
-80,-40,40,60,-60,0,100,-100,-80,-160,-110,-140
-80,-50,30,65,-55,-10,100,-120,-90,-180,-120,-140
-90,-40,50,65,-70,5,100,-140,-100,-200,-140,-170
-80,-60,20,70,-50,-20,100,-160,-120,-200,-150,-180
-80,-60,20,70,-50,-20,100,-180,-120,-210,-150,-190
-90,-70,20,80,-55,-25,90,-190,-120,-210,-150,-200
-70,-70,0,70,-35,-35,110,-180,-120,-180,-140,-160
-80,-70,10,75,-45,-30,100,-200,-130,-200,-140,-180
-100,-90,10,95,-55,-40,90,-200,-140,-200,-150,-180
-80,-90,-10,85,-35,-50,100,-200,-150,-210,-160,-160
-90,-90,0,90,-45,-45,90,-200,-160,-220,-180,-180
-90,-80,10,85,-50,-35,90,-200,-170,-240,-180,-180
-80,-90,-10,85,-35,-50,100,-210,-170,-250,-190,-190
-90,-100,-10,95,-40,-55,90,-210,-170,-240,-190,-190
-90,-110,-20,100,-35,-65,90,-230,-170,-240,-190,-190
-90,-140,-50,115,-20,-95,90,-230,-170,-240,-180,-190
-100,-160,-60,130,-20,-110,90,-240,-170,-240,-190,-200
-100,-150,-50,125,-25,-100,90,-240,-170,-230,-170,-190
-100,-130,-30,115,-35,-80,80,-250,-180,-250,-180,-200
-100,-130,-30,115,-35,-80,80,-240,-200,-250,-180,-190
-90,-140,-50,115,-20,-95,90,-240,-210,-260,-190,-210
-100,-140,-40,120,-30,-90,90,-260,-230,-260,-210,-210
-100,-120,-20,110,-40,-70,100,-260,-210,-250,-200,-200
-110,-130,-20,120,-45,-75,80,-270,-220,-260,-210,-210
-110,-140,-30,125,-40,-85,80,-290,-230,-270,-210,-230
-110,-120,-10,115,-50,-65,80,-280,-210,-250,-200,-220
-120,-130,-10,125,-55,-70,70,-280,-220,-250,-210,-220
-120,-130,-10,125,-55,-70,70,-280,-220,-250,-190,-210
-110,-120,-10,115,-50,-65,90,-280,-230,-250,-190,-210
-110,-120,-10,115,-50,-65,70,-270,-240,-250,-200,-210
-110,-100,10,105,-60,-45,70,-270,-250,-260,-210,-210
-110,-110,0,110,-55,-55,70,-270,-250,-270,-220,-210
-100,-100,0,100,-50,-50,70,-270,-230,-280,-210,-200
-90,-100,-10,95,-40,-55,60,-270,-230,-270,-210,-200
